7.217517e-06	
8.560311e-06	
9.735256e-06	
9.735256e-06	
6.378271e-06	
2.182040e-06	
3.356985e-07	
8.392462e-07	
1.342794e-06	
2.517738e-06	
3.860533e-06	
2.349889e-06	
1.846342e-06	
4.196231e-06	
3.189135e-06	
-2.853437e-06	
-6.881819e-06	
-6.881819e-06	
-8.560311e-06	
-1.208515e-05	
-1.225299e-05	
-1.023880e-05	
-8.560311e-06	
-4.028382e-06	
-1.678492e-07	
3.356985e-07	
-6.713969e-07	
0.000000e+00	
1.174945e-06	
3.189135e-06	
4.867628e-06	
4.196231e-06	
3.860533e-06	
5.706874e-06	
7.217517e-06	
4.699779e-06	
6.713969e-07	
-1.174945e-06	
-6.713969e-07	
1.678492e-07	
1.007095e-06	
8.392462e-07	
1.510643e-06	
-5.035477e-07	
-5.203327e-06	
-7.553216e-06	
-7.049668e-06	
-5.539025e-06	
-6.210422e-06	
-7.553216e-06	
-9.903105e-06	
-1.225299e-05	
-1.225299e-05	
-1.191730e-05	
-1.091020e-05	
-8.560311e-06	
-5.706874e-06	
-3.356985e-06	
-8.392462e-07	
1.846342e-06	
6.210422e-06	
8.056763e-06	
4.867628e-06	
2.517738e-06	
3.189135e-06	
5.203327e-06	
6.881819e-06	
8.392461e-06	
1.107805e-05	
1.309224e-05	
1.309224e-05	
1.158160e-05	
7.888914e-06	
3.524834e-06	
-2.182040e-06	
-1.091020e-05	
-1.997406e-05	
-2.450599e-05	
-2.333104e-05	
-2.098116e-05	
-1.947051e-05	
-1.695277e-05	
-1.443503e-05	
-1.326009e-05	
-1.040665e-05	
-6.210422e-06	
-4.028382e-06	
-3.524834e-06	
-1.510643e-06	
-1.678492e-07	
-6.713969e-07	
1.174945e-06	
4.364080e-06	
4.364080e-06	
3.021286e-06	
3.524834e-06	
2.685588e-06	
1.510643e-06	
2.517738e-06	
4.364080e-06	
4.531929e-06	
4.364080e-06	
4.531929e-06	
2.182040e-06	
1.174945e-06	
2.853437e-06	
2.517738e-06	
-1.678492e-07	
-2.182040e-06	
-1.846342e-06	
2.014191e-06	
4.867628e-06	
5.371176e-06	
3.692683e-06	
2.014191e-06	
1.510643e-06	
-3.356985e-07	
-1.007095e-06	
6.713969e-07	
2.014191e-06	
4.196231e-06	
7.049668e-06	
7.217517e-06	
3.860533e-06	
0.000000e+00	
-2.182040e-06	
-4.699779e-06	
-5.203327e-06	
-4.867628e-06	
-4.364080e-06	
-2.014191e-06	
-1.510643e-06	
-5.035477e-07	
1.174945e-06	
-5.035477e-07	
-5.035477e-07	
2.853437e-06	
4.028382e-06	
2.517738e-06	
2.517738e-06	
3.860533e-06	
3.189135e-06	
1.174945e-06	
1.510643e-06	
1.510643e-06	
-2.853437e-06	
-7.049668e-06	
-5.539025e-06	
-1.174945e-06	
1.510643e-06	
1.007095e-06	
3.356985e-07	
-1.678492e-06	
-1.678492e-06	
-1.846342e-06	
-3.860533e-06	
-4.364080e-06	
-4.531929e-06	
-4.699779e-06	
-3.021286e-06	
-3.524834e-06	
-5.874723e-06	
-6.546120e-06	
-4.364080e-06	
-2.853437e-06	
-3.021286e-06	
-4.531929e-06	
-5.203327e-06	
-4.867628e-06	
-4.531929e-06	
-1.846342e-06	
3.692683e-06	
7.217517e-06	
6.546120e-06	
4.531929e-06	
4.531929e-06	
5.874723e-06	
5.203327e-06	
3.860533e-06	
8.392462e-07	
-4.196231e-06	
-7.721065e-06	
-8.224612e-06	
-7.217517e-06	
-8.560311e-06	
-1.091020e-05	
-1.158160e-05	
-8.224612e-06	
-3.524834e-06	
-1.007095e-06	
1.678492e-06	
4.531929e-06	
7.049668e-06	
8.560311e-06	
8.896010e-06	
5.371176e-06	
2.853437e-06	
3.524834e-06	
2.853437e-06	
5.035477e-07	
-1.678492e-06	
-4.867628e-06	
-5.371176e-06	
-6.210422e-06	
-8.560311e-06	
-7.888914e-06	
-4.867628e-06	
-3.021286e-06	
-8.392462e-07	
2.182040e-06	
2.182040e-06	
1.678492e-07	
-2.014191e-06	
-2.349889e-06	
-1.174945e-06	
3.356985e-07	
8.392462e-07	
-5.035477e-07	
-1.678492e-06	
-8.392462e-07	
-8.392462e-07	
-3.189135e-06	
-3.860533e-06	
-3.189135e-06	
-3.189135e-06	
-4.196231e-06	
-4.196231e-06	
-4.531929e-06	
-4.196231e-06	
-3.356985e-06	
-2.853437e-06	
-8.392462e-07	
1.174945e-06	
1.174945e-06	
1.174945e-06	
1.678492e-06	
1.846342e-06	
1.846342e-06	
2.349889e-06	
4.364080e-06	
8.056763e-06	
1.023880e-05	
7.888914e-06	
2.182040e-06	
-2.685588e-06	
-5.035477e-06	
-6.042573e-06	
-6.546120e-06	
-6.210422e-06	
-2.853437e-06	
8.392462e-07	
3.692683e-06	
5.706874e-06	
7.217517e-06	
1.040665e-05	
1.208515e-05	
9.063859e-06	
3.860533e-06	
-1.510643e-06	
-7.721065e-06	
-1.225299e-05	
-1.661707e-05	
-1.997406e-05	
-1.779202e-05	
-1.292439e-05	
-8.224612e-06	
-4.867628e-06	
-2.517738e-06	
0.000000e+00	
3.524834e-06	
7.217517e-06	
1.091020e-05	
1.191730e-05	
9.231708e-06	
6.881819e-06	
5.203327e-06	
5.203327e-06	
3.524834e-06	
1.678492e-07	
-2.349889e-06	
-3.860533e-06	
-4.364080e-06	
-3.356985e-06	
1.174945e-06	
1.678492e-06	
-1.174945e-06	
-2.685588e-06	
-2.685588e-06	
-3.692683e-06	
-3.356985e-06	
-1.846342e-06	
5.035477e-07	
3.356985e-06	
4.867628e-06	
3.860533e-06	
2.517738e-06	
8.392462e-07	
-5.035477e-07	
-1.342794e-06	
-1.510643e-06	
-1.342794e-06	
1.174945e-06	
3.356985e-06	
4.364080e-06	
4.364080e-06	
3.860533e-06	
5.035477e-07	
-3.021286e-06	
-6.210422e-06	
-8.224612e-06	
-9.903105e-06	
-1.023880e-05	
-8.224612e-06	
-7.217517e-06	
-6.713969e-06	
-3.189135e-06	
1.174945e-06	
2.517738e-06	
5.035477e-06	
9.903105e-06	
1.191730e-05	
1.309224e-05	
1.393149e-05	
1.225299e-05	
9.567407e-06	
6.881819e-06	
5.874723e-06	
6.042573e-06	
4.364080e-06	
2.517738e-06	
3.189135e-06	
4.196231e-06	
2.517738e-06	
-3.356985e-07	
-3.021286e-06	
-5.539025e-06	
-6.881819e-06	
-6.881819e-06	
-5.539025e-06	
-6.881819e-06	
-9.567407e-06	
-9.903105e-06	
-9.231708e-06	
-1.141375e-05	
-1.426719e-05	
-1.426719e-05	
-1.326009e-05	
-1.275654e-05	
-1.258869e-05	
-1.208515e-05	
-1.107805e-05	
-1.040665e-05	
-8.728161e-06	
-6.881819e-06	
-5.539025e-06	
-5.035477e-06	
-5.539025e-06	
-4.364080e-06	
1.678492e-07	
1.846342e-06	
6.713969e-07	
6.713969e-07	
1.510643e-06	
2.685588e-06	
7.217517e-06	
9.735256e-06	
8.560311e-06	
7.888914e-06	
7.888914e-06	
8.728161e-06	
8.728161e-06	
5.539025e-06	
1.174945e-06	
-1.678492e-07	
1.510643e-06	
8.392462e-07	
-2.853437e-06	
-4.867628e-06	
-6.210422e-06	
-6.546120e-06	
-3.860533e-06	
-2.853437e-06	
-4.699779e-06	
-7.049668e-06	
-6.713969e-06	
-7.049668e-06	
-9.063859e-06	
-9.567407e-06	
-9.567407e-06	
-7.553216e-06	
-4.028382e-06	
-3.524834e-06	
-4.531929e-06	
-8.392462e-07	
2.517738e-06	
2.517738e-06	
-1.510643e-06	
-5.035477e-06	
-4.364080e-06	
-8.392462e-07	
-8.392462e-07	
-2.853437e-06	
-5.203327e-06	
-5.539025e-06	
-5.371176e-06	
-3.692683e-06	
-5.035477e-07	
1.174945e-06	
1.007095e-06	
-1.678492e-07	
-5.035477e-07	
-8.392462e-07	
-3.189135e-06	
-4.196231e-06	
-4.196231e-06	
-3.860533e-06	
-2.853437e-06	
-1.678492e-06	
-1.342794e-06	
1.678492e-07	
3.021286e-06	
6.042573e-06	
9.231708e-06	
1.091020e-05	
1.191730e-05	
1.376364e-05	
1.460288e-05	
1.426719e-05	
1.174945e-05	
8.560311e-06	
8.392461e-06	
7.888914e-06	
5.706874e-06	
4.364080e-06	
4.531929e-06	
3.189135e-06	
1.174945e-06	
6.713969e-07	
5.035477e-07	
0.000000e+00	
-3.524834e-06	
-4.364080e-06	
-2.517738e-06	
-5.706874e-06	
-9.063859e-06	
-1.174945e-05	
-1.258869e-05	
-1.258869e-05	
-1.258869e-05	
-1.409934e-05	
-1.292439e-05	
-8.728161e-06	
-5.035477e-06	
-4.028382e-06	
-3.356985e-07	
3.524834e-06	
5.203327e-06	
9.735256e-06	
1.342794e-05	
1.594568e-05	
1.628138e-05	
1.191730e-05	
5.203327e-06	
-3.356985e-07	
-6.210422e-06	
-1.275654e-05	
-1.812772e-05	
-2.165255e-05	
-2.249180e-05	
-1.896696e-05	
-1.242084e-05	
-6.546120e-06	
-1.678492e-06	
2.349889e-06	
6.378271e-06	
9.063859e-06	
8.392461e-06	
3.356985e-06	
0.000000e+00	
1.174945e-06	
6.546120e-06	
9.903105e-06	
9.231708e-06	
6.881819e-06	
4.867628e-06	
7.049668e-06	
9.903105e-06	
8.392461e-06	
4.867628e-06	
2.853437e-06	
3.524834e-06	
4.028382e-06	
4.196231e-06	
4.531929e-06	
5.203327e-06	
5.035477e-06	
3.860533e-06	
3.356985e-07	
-4.531929e-06	
-5.539025e-06	
-3.189135e-06	
-3.524834e-06	
-6.378271e-06	
-6.210422e-06	
-6.546120e-06	
-8.896010e-06	
-7.888914e-06	
-5.706874e-06	
-5.539025e-06	
-7.217517e-06	
-8.728161e-06	
-7.217517e-06	
-4.364080e-06	
-4.364080e-06	
-3.692683e-06	
-8.392462e-07	
6.713969e-07	
2.182040e-06	
2.014191e-06	
-1.678492e-07	
-1.678492e-06	
-1.846342e-06	
-1.846342e-06	
-2.853437e-06	
-4.364080e-06	
-3.692683e-06	
-2.182040e-06	
-3.021286e-06	
-4.867628e-06	
-5.203327e-06	
-3.356985e-06	
-1.678492e-06	
-3.692683e-06	
-4.867628e-06	
-5.035477e-06	
-3.692683e-06	
-1.678492e-06	
-2.517738e-06	
-1.174945e-06	
3.524834e-06	
7.721065e-06	
8.224612e-06	
7.888914e-06	
1.023880e-05	
1.007095e-05	
7.217517e-06	
5.874723e-06	
5.874723e-06	
3.860533e-06	
3.189135e-06	
3.189135e-06	
3.189135e-06	
1.007095e-06	
-1.510643e-06	
-1.007095e-06	
-5.035477e-07	
-4.196231e-06	
-7.385367e-06	
-6.210422e-06	
-4.364080e-06	
-5.874723e-06	
-8.896010e-06	
-1.091020e-05	
-9.567407e-06	
-4.867628e-06	
-2.517738e-06	
-3.692683e-06	
-4.531929e-06	
-4.531929e-06	
-4.196231e-06	
-4.196231e-06	
-4.196231e-06	
-3.860533e-06	
-4.531929e-06	
-4.028382e-06	
-3.356985e-06	
-2.685588e-06	
-1.007095e-06	
0.000000e+00	
-8.392462e-07	
-2.517738e-06	
-3.524834e-06	
-3.692683e-06	
-3.524834e-06	
-2.685588e-06	
-2.014191e-06	
-2.182040e-06	
-3.524834e-06	
-3.860533e-06	
-2.182040e-06	
8.392462e-07	
3.524834e-06	
4.364080e-06	
3.021286e-06	
2.014191e-06	
3.692683e-06	
5.203327e-06	
3.356985e-06	
3.021286e-06	
4.867628e-06	
4.196231e-06	
1.174945e-06	
-1.510643e-06	
-1.846342e-06	
-1.846342e-06	
-2.517738e-06	
-2.182040e-06	
-2.853437e-06	
-2.685588e-06	
-8.392462e-07	
5.035477e-07	
1.510643e-06	
3.189135e-06	
2.182040e-06	
1.678492e-07	
5.035477e-07	
1.846342e-06	
3.189135e-06	
2.853437e-06	
3.356985e-07	
-2.014191e-06	
-6.713969e-07	
1.510643e-06	
1.846342e-06	
0.000000e+00	
-3.860533e-06	
-4.531929e-06	
-3.692683e-06	
-4.196231e-06	
-4.196231e-06	
-2.182040e-06	
3.021286e-06	
7.553216e-06	
7.888914e-06	
7.721065e-06	
6.546120e-06	
5.706874e-06	
4.364080e-06	
1.007095e-06	
0.000000e+00	
2.517738e-06	
3.692683e-06	
6.546120e-06	
9.567407e-06	
9.231708e-06	
9.903105e-06	
1.091020e-05	
9.063859e-06	
2.182040e-06	
-8.056763e-06	
-1.393149e-05	
-1.661707e-05	
-1.812772e-05	
-1.896696e-05	
-1.712062e-05	
-1.376364e-05	
-9.735256e-06	
-6.546120e-06	
-5.706874e-06	
-5.539025e-06	
-4.699779e-06	
-1.510643e-06	
1.174945e-06	
2.182040e-06	
1.174945e-06	
-1.342794e-06	
-5.035477e-06	
-6.042573e-06	
-4.028382e-06	
-1.174945e-06	
-5.035477e-07	
-1.846342e-06	
-5.035477e-06	
-5.035477e-06	
-8.392462e-07	
1.510643e-06	
1.174945e-06	
8.392462e-07	
-1.342794e-06	
-2.182040e-06	
-2.853437e-06	
-2.517738e-06	
-1.678492e-07	
1.510643e-06	
8.392462e-07	
5.035477e-07	
2.349889e-06	
2.182040e-06	
3.356985e-07	
-1.678492e-07	
1.678492e-07	
8.392462e-07	
8.392462e-07	
1.007095e-06	
3.356985e-07	
1.678492e-07	
-5.035477e-07	
-1.678492e-06	
-1.678492e-06	
-8.392462e-07	
1.846342e-06	
5.874723e-06	
8.056763e-06	
7.553216e-06	
5.874723e-06	
2.014191e-06	
-5.035477e-07	
-1.007095e-06	
5.035477e-07	
1.678492e-06	
1.510643e-06	
-2.685588e-06	
-5.539025e-06	
-5.203327e-06	
-4.699779e-06	
-2.014191e-06	
1.007095e-06	
1.846342e-06	
8.392462e-07	
2.182040e-06	
4.364080e-06	
3.021286e-06	
8.392462e-07	
-1.007095e-06	
-2.517738e-06	
-1.678492e-06	
-1.342794e-06	
-3.524834e-06	
-6.210422e-06	
-9.567407e-06	
-7.553216e-06	
-5.706874e-06	
-7.217517e-06	
-9.231708e-06	
-7.888914e-06	
-4.867628e-06	
-2.182040e-06	
-2.517738e-06	
-4.196231e-06	
-3.860533e-06	
-4.028382e-06	
-5.706874e-06	
-5.539025e-06	
-3.189135e-06	
-3.524834e-06	
-5.203327e-06	
-6.210422e-06	
-5.874723e-06	
-5.539025e-06	
-5.203327e-06	
-4.196231e-06	
-3.356985e-07	
2.182040e-06	
2.517738e-06	
2.014191e-06	
0.000000e+00	
-5.035477e-07	
1.174945e-06	
1.174945e-06	
0.000000e+00	
-1.678492e-07	
8.392462e-07	
1.510643e-06	
6.713969e-07	
-1.678492e-07	
1.846342e-06	
5.035477e-06	
7.888914e-06	
8.728161e-06	
5.539025e-06	
2.853437e-06	
5.035477e-07	
3.356985e-07	
1.174945e-06	
3.021286e-06	
5.371176e-06	
6.546120e-06	
7.888914e-06	
1.124590e-05	
1.141375e-05	
9.063859e-06	
5.539025e-06	
2.853437e-06	
2.853437e-06	
3.356985e-07	
-3.356985e-06	
-4.196231e-06	
-3.189135e-06	
-3.860533e-06	
-3.524834e-06	
-3.356985e-06	
-4.699779e-06	
-4.364080e-06	
-3.524834e-06	
-3.189135e-06	
-3.692683e-06	
-5.035477e-06	
-6.546120e-06	
-5.874723e-06	
-5.371176e-06	
-3.860533e-06	
-1.678492e-07	
1.510643e-06	
1.510643e-06	
1.174945e-06	
1.510643e-06	
3.189135e-06	
3.356985e-06	
3.692683e-06	
4.699779e-06	
3.524834e-06	
2.517738e-06	
2.349889e-06	
1.678492e-06	
-6.713969e-07	
-3.860533e-06	
-4.531929e-06	
-2.014191e-06	
-1.678492e-07	
-8.392462e-07	
-3.524834e-06	
-5.203327e-06	
-6.210422e-06	
-6.713969e-06	
-5.539025e-06	
-4.531929e-06	
-4.531929e-06	
-6.210422e-06	
-8.896010e-06	
-8.896010e-06	
-8.896010e-06	
-9.567407e-06	
-8.560311e-06	
-6.210422e-06	
-4.196231e-06	
-1.846342e-06	
6.713969e-07	
2.853437e-06	
2.853437e-06	
3.189135e-06	
4.364080e-06	
5.539025e-06	
5.874723e-06	
5.539025e-06	
4.364080e-06	
4.531929e-06	
7.721065e-06	
1.191730e-05	
1.376364e-05	
1.023880e-05	
4.364080e-06	
1.510643e-06	
1.174945e-06	
2.517738e-06	
2.182040e-06	
1.846342e-06	
2.853437e-06	
3.692683e-06	
3.524834e-06	
2.853437e-06	
1.342794e-06	
-1.174945e-06	
-6.042573e-06	
-9.567407e-06	
-7.553216e-06	
-6.210422e-06	
-8.224612e-06	
-9.903105e-06	
-4.699779e-06	
1.510643e-06	
5.035477e-06	
7.385367e-06	
1.023880e-05	
1.359579e-05	
1.191730e-05	
7.888914e-06	
3.021286e-06	
-2.349889e-06	
-9.735256e-06	
-1.913481e-05	
-2.517739e-05	
-2.568093e-05	
-2.534523e-05	
-2.165255e-05	
-1.527428e-05	
-1.191730e-05	
-1.309224e-05	
-1.359579e-05	
-1.225299e-05	
-9.735256e-06	
-5.706874e-06	
-1.510643e-06	
2.014191e-06	
3.860533e-06	
4.531929e-06	
5.035477e-06	
4.364080e-06	
3.524834e-06	
3.860533e-06	
6.546120e-06	
1.040665e-05	
1.158160e-05	
9.735256e-06	
6.881819e-06	
5.203327e-06	
4.531929e-06	
5.203327e-06	
6.378271e-06	
3.189135e-06	
-1.174945e-06	
0.000000e+00	
1.678492e-06	
1.342794e-06	
1.678492e-07	
-1.510643e-06	
-1.678492e-06	
-1.678492e-07	
1.510643e-06	
3.021286e-06	
2.685588e-06	
1.007095e-06	
-1.678492e-07	
1.678492e-07	
-1.678492e-06	
-5.874723e-06	
-7.553216e-06	
-7.553216e-06	
-8.224612e-06	
-1.007095e-05	
-8.392461e-06	
-3.524834e-06	
-1.342794e-06	
-1.510643e-06	
-1.174945e-06	
-1.678492e-07	
6.713969e-07	
1.174945e-06	
1.510643e-06	
2.182040e-06	
5.035477e-06	
5.539025e-06	
3.524834e-06	
2.182040e-06	
3.021286e-06	
3.524834e-06	
2.517738e-06	
2.014191e-06	
1.846342e-06	
-1.007095e-06	
-3.189135e-06	
-3.524834e-06	
-3.189135e-06	
-1.007095e-06	
-1.510643e-06	
-2.349889e-06	
-5.035477e-07	
0.000000e+00	
1.174945e-06	
2.182040e-06	
3.189135e-06	
2.853437e-06	
1.510643e-06	
2.517738e-06	
4.531929e-06	
5.203327e-06	
5.874723e-06	
8.560311e-06	
1.023880e-05	
9.231708e-06	
6.881819e-06	
4.699779e-06	
1.678492e-06	
-2.349889e-06	
-6.713969e-06	
-7.888914e-06	
-6.210422e-06	
-2.182040e-06	
-1.678492e-07	
0.000000e+00	
-1.846342e-06	
-5.539025e-06	
-7.721065e-06	
-1.057450e-05	
-1.225299e-05	
-1.275654e-05	
-1.141375e-05	
-9.063859e-06	
-6.546120e-06	
-3.524834e-06	
-5.035477e-07	
-8.392462e-07	
-2.517738e-06	
-3.356985e-06	
-3.524834e-06	
-2.853437e-06	
-3.021286e-06	
-6.378271e-06	
-7.385367e-06	
-7.553216e-06	
-8.224612e-06	
-7.721065e-06	
-6.546120e-06	
-6.546120e-06	
-7.049668e-06	
-7.385367e-06	
-7.553216e-06	
-9.231708e-06	
-8.224612e-06	
-4.028382e-06	
-8.392462e-07	
-1.678492e-07	
3.356985e-07	
1.174945e-06	
1.678492e-07	
0.000000e+00	
3.356985e-07	
8.392462e-07	
3.524834e-06	
5.874723e-06	
5.706874e-06	
4.867628e-06	
7.553216e-06	
9.399558e-06	
7.553216e-06	
5.203327e-06	
4.531929e-06	
5.203327e-06	
5.874723e-06	
6.546120e-06	
6.210422e-06	
4.028382e-06	
2.517738e-06	
2.517738e-06	
3.356985e-06	
1.510643e-06	
-3.356985e-07	
-5.035477e-07	
-1.510643e-06	
-3.021286e-06	
-3.356985e-06	
-1.510643e-06	
-1.846342e-06	
-5.035477e-06	
-4.867628e-06	
-2.853437e-06	
-1.846342e-06	
1.678492e-07	
1.846342e-06	
2.014191e-06	
1.846342e-06	
3.356985e-07	
-1.174945e-06	
-1.174945e-06	
-5.035477e-07	
-8.392462e-07	
-1.174945e-06	
-1.846342e-06	
-2.517738e-06	
-1.510643e-06	
-1.510643e-06	
-3.860533e-06	
-6.210422e-06	
-7.049668e-06	
-7.049668e-06	
-8.560311e-06	
-1.007095e-05	
-1.091020e-05	
-1.057450e-05	
-1.057450e-05	
-9.231708e-06	
-6.378271e-06	
-5.035477e-06	
-3.692683e-06	
-2.349889e-06	
0.000000e+00	
1.510643e-06	
1.174945e-06	
1.846342e-06	
2.517738e-06	
5.035477e-07	
-1.510643e-06	
-3.189135e-06	
-8.392462e-07	
2.182040e-06	
8.392462e-07	
-1.510643e-06	
-1.678492e-06	
1.846342e-06	
7.049668e-06	
9.735256e-06	
1.275654e-05	
1.560998e-05	
1.863127e-05	
2.114900e-05	
1.980621e-05	
1.443503e-05	
7.217517e-06	
-1.510643e-06	
-1.057450e-05	
-1.879912e-05	
-2.467384e-05	
-2.652018e-05	
-2.400244e-05	
-1.997406e-05	
-1.628138e-05	
-1.258869e-05	
-7.553216e-06	
-2.014191e-06	
2.853437e-06	
5.874723e-06	
8.560311e-06	
9.399558e-06	
9.567407e-06	
9.231708e-06	
5.706874e-06	
5.035477e-07	
-5.035477e-07	
8.392462e-07	
2.182040e-06	
2.517738e-06	
2.014191e-06	
2.182040e-06	
3.189135e-06	
2.517738e-06	
1.174945e-06	
2.014191e-06	
2.182040e-06	
1.007095e-06	
-1.678492e-07	
-1.174945e-06	
-1.510643e-06	
-6.713969e-07	
3.356985e-07	
2.014191e-06	
3.524834e-06	
6.042573e-06	
6.881819e-06	
5.706874e-06	
6.378271e-06	
7.217517e-06	
6.378271e-06	
3.021286e-06	
1.174945e-06	
2.014191e-06	
3.021286e-06	
3.021286e-06	
2.014191e-06	
8.392462e-07	
-1.678492e-07	
6.713969e-07	
-1.678492e-07	
-4.531929e-06	
-7.049668e-06	
-6.210422e-06	
-5.371176e-06	
-6.210422e-06	
-5.874723e-06	
-4.196231e-06	
-3.860533e-06	
-4.867628e-06	
-4.867628e-06	
-5.706874e-06	
-8.560311e-06	
-1.040665e-05	
-9.231708e-06	
-7.553216e-06	
-6.210422e-06	
-3.356985e-06	
-1.174945e-06	
-1.846342e-06	
-2.853437e-06	
-2.349889e-06	
-1.846342e-06	
-1.678492e-07	
-3.356985e-07	
-3.189135e-06	
-3.692683e-06	
-2.014191e-06	
-1.846342e-06	
-4.531929e-06	
-6.210422e-06	
-6.713969e-06	
-6.210422e-06	
-8.224612e-06	
-9.231708e-06	
-9.063859e-06	
-9.903105e-06	
-9.735256e-06	
-6.546120e-06	
-1.846342e-06	
1.174945e-06	
1.846342e-06	
2.182040e-06	
5.539025e-06	
7.553216e-06	
5.035477e-06	
2.517738e-06	
5.035477e-07	
6.713969e-07	
8.392462e-07	
-1.678492e-06	
-5.371176e-06	
-6.881819e-06	
-6.546120e-06	
-5.035477e-06	
-4.196231e-06	
-4.196231e-06	
-5.035477e-06	
-5.035477e-06	
-3.524834e-06	
-2.182040e-06	
-1.342794e-06	
-1.007095e-06	
3.356985e-07	
2.853437e-06	
4.699779e-06	
6.210422e-06	
6.042573e-06	
4.531929e-06	
3.692683e-06	
1.174945e-06	
-3.524834e-06	
-5.035477e-06	
-1.510643e-06	
3.692683e-06	
6.546120e-06	
6.042573e-06	
6.378271e-06	
6.881819e-06	
6.210422e-06	
3.860533e-06	
3.860533e-06	
4.531929e-06	
3.021286e-06	
-6.713969e-07	
-4.028382e-06	
-2.853437e-06	
-1.678492e-07	
1.007095e-06	
1.007095e-06	
3.356985e-07	
8.392462e-07	
4.364080e-06	
7.049668e-06	
6.210422e-06	
3.860533e-06	
1.342794e-06	
-3.356985e-07	
-5.035477e-07	
-1.342794e-06	
-1.678492e-06	
1.174945e-06	
3.189135e-06	
2.182040e-06	
1.846342e-06	
2.349889e-06	
1.510643e-06	
3.356985e-07	
-1.174945e-06	
-2.853437e-06	
-5.035477e-06	
-8.728161e-06	
-1.057450e-05	
-1.141375e-05	
-1.292439e-05	
-1.443503e-05	
-1.359579e-05	
-1.242084e-05	
-1.174945e-05	
-1.007095e-05	
-7.217517e-06	
-4.364080e-06	
-2.014191e-06	
1.678492e-07	
4.028382e-06	
6.546120e-06	
6.378271e-06	
5.203327e-06	
1.678492e-06	
-1.510643e-06	
-2.182040e-06	
-2.517738e-06	
-2.517738e-06	
-3.189135e-06	
-5.035477e-06	
-5.035477e-06	
-2.014191e-06	
-8.392462e-07	
-8.392462e-07	
1.174945e-06	
1.678492e-06	
-3.356985e-07	
-1.342794e-06	
-1.510643e-06	
-2.517738e-06	
-3.021286e-06	
-1.678492e-06	
8.392462e-07	
2.517738e-06	
2.685588e-06	
3.860533e-06	
2.349889e-06	
-1.174945e-06	
-3.860533e-06	
-5.874723e-06	
-5.035477e-06	
-8.392462e-07	
4.531929e-06	
8.224612e-06	
8.896010e-06	
8.224612e-06	
8.392461e-06	
1.275654e-05	
1.594568e-05	
1.812772e-05	
1.812772e-05	
1.628138e-05	
1.359579e-05	
9.903105e-06	
5.539025e-06	
3.189135e-06	
2.182040e-06	
-8.392462e-07	
-4.196231e-06	
-6.378271e-06	
-7.721065e-06	
-8.392461e-06	
-1.023880e-05	
-1.158160e-05	
-1.174945e-05	
-9.903105e-06	
-6.210422e-06	
-3.692683e-06	
-1.174945e-06	
3.189135e-06	
5.874723e-06	
6.210422e-06	
6.546120e-06	
7.888914e-06	
1.057450e-05	
8.728161e-06	
5.203327e-06	
2.517738e-06	
-3.356985e-07	
-4.028382e-06	
-6.378271e-06	
-6.378271e-06	
-6.378271e-06	
-8.224612e-06	
-9.567407e-06	
-9.567407e-06	
-8.224612e-06	
-7.721065e-06	
-9.063859e-06	
-1.023880e-05	
-8.896010e-06	
-7.217517e-06	
-2.853437e-06	
2.685588e-06	
7.553216e-06	
1.309224e-05	
1.628138e-05	
1.628138e-05	
1.510643e-05	
1.242084e-05	
7.385367e-06	
-1.678492e-07	
-7.888914e-06	
-1.393149e-05	
-1.930266e-05	
-2.349889e-05	
-2.265965e-05	
-1.846342e-05	
-1.443503e-05	
-1.158160e-05	
-8.896010e-06	
-5.539025e-06	
-3.021286e-06	
-1.007095e-06	
2.517738e-06	
4.867628e-06	
4.531929e-06	
2.517738e-06	
1.678492e-06	
3.021286e-06	
2.685588e-06	
3.356985e-07	
1.678492e-07	
1.174945e-06	
1.174945e-06	
-3.356985e-07	
-1.007095e-06	
-1.007095e-06	
1.678492e-07	
5.035477e-07	
-8.392462e-07	
-3.189135e-06	
-5.035477e-06	
-6.210422e-06	
-7.217517e-06	
-7.888914e-06	
-8.896010e-06	
-1.057450e-05	
-1.393149e-05	
-1.560998e-05	
-1.628138e-05	
-1.695277e-05	
-1.510643e-05	
-1.326009e-05	
-9.903105e-06	
-5.203327e-06	
1.342794e-06	
5.874723e-06	
9.567407e-06	
1.661707e-05	
2.148470e-05	
2.215610e-05	
1.947051e-05	
1.594568e-05	
1.493858e-05	
1.527428e-05	
1.460288e-05	
9.903105e-06	
4.196231e-06	
3.356985e-07	
-8.392462e-07	
-8.392462e-07	
-2.517738e-06	
-6.042573e-06	
-6.042573e-06	
-2.685588e-06	
-5.035477e-07	
1.678492e-07	
-3.356985e-07	
-1.846342e-06	
-3.524834e-06	
-3.356985e-06	
-2.517738e-06	
-3.524834e-06	
-5.035477e-06	
-4.196231e-06	
-3.189135e-06	
-5.203327e-06	
-6.546120e-06	
-7.888914e-06	
-9.231708e-06	
-9.231708e-06	
-1.007095e-05	
-1.225299e-05	
-1.560998e-05	
-1.661707e-05	
-1.661707e-05	
-1.477073e-05	
-1.141375e-05	
-7.553216e-06	
-7.553216e-06	
-8.392461e-06	
-8.560311e-06	
-6.042573e-06	
-6.713969e-07	
4.028382e-06	
7.217517e-06	
7.553216e-06	
6.546120e-06	
7.888914e-06	
9.231708e-06	
9.567407e-06	
9.231708e-06	
8.392461e-06	
7.888914e-06	
9.399558e-06	
1.191730e-05	
1.292439e-05	
1.141375e-05	
9.903105e-06	
1.057450e-05	
1.091020e-05	
8.224612e-06	
5.035477e-06	
2.517738e-06	
8.392462e-07	
1.342794e-06	
4.028382e-06	
5.874723e-06	
5.874723e-06	
5.706874e-06	
2.517738e-06	
-3.189135e-06	
-6.210422e-06	
-5.874723e-06	
-6.546120e-06	
-8.896010e-06	
-9.567407e-06	
-8.224612e-06	
-8.896010e-06	
-1.057450e-05	
-1.191730e-05	
-1.091020e-05	
-9.231708e-06	
-9.903105e-06	
-1.191730e-05	
-1.225299e-05	
-9.735256e-06	
-7.553216e-06	
-7.217517e-06	
-8.728161e-06	
-8.392461e-06	
-4.867628e-06	
-2.182040e-06	
-3.524834e-06	
-7.888914e-06	
-9.735256e-06	
-8.560311e-06	
-6.546120e-06	
-3.189135e-06	
-6.713969e-07	
1.846342e-06	
4.196231e-06	
4.531929e-06	
5.035477e-06	
5.706874e-06	
8.560311e-06	
1.191730e-05	
1.326009e-05	
1.191730e-05	
1.023880e-05	
9.063859e-06	
7.888914e-06	
7.217517e-06	
6.881819e-06	
4.867628e-06	
2.349889e-06	
1.678492e-07	
0.000000e+00	
5.035477e-07	
1.174945e-06	
1.510643e-06	
1.510643e-06	
1.678492e-07	
-1.846342e-06	
-1.174945e-06	
3.356985e-07	
1.846342e-06	
2.349889e-06	
2.685588e-06	
1.846342e-06	
2.182040e-06	
3.860533e-06	
5.874723e-06	
7.553216e-06	
8.392461e-06	
8.392461e-06	
7.888914e-06	
6.210422e-06	
3.021286e-06	
8.392462e-07	
-3.356985e-07	
-1.678492e-07	
-1.007095e-06	
-1.007095e-06	
5.035477e-07	
0.000000e+00	
-3.021286e-06	
-3.860533e-06	
-5.539025e-06	
-7.721065e-06	
-8.056763e-06	
-6.378271e-06	
-6.210422e-06	
-6.210422e-06	
-6.881819e-06	
-5.539025e-06	
-3.524834e-06	
-4.699779e-06	
-3.692683e-06	
1.174945e-06	
5.203327e-06	
7.385367e-06	
9.231708e-06	
1.208515e-05	
1.577783e-05	
1.762417e-05	
1.359579e-05	
4.364080e-06	
-5.706874e-06	
-1.560998e-05	
-2.282750e-05	
-2.635233e-05	
-2.702373e-05	
-2.517739e-05	
-2.114900e-05	
-1.527428e-05	
-1.158160e-05	
-9.903105e-06	
-6.210422e-06	
0.000000e+00	
5.203327e-06	
7.888914e-06	
7.385367e-06	
4.028382e-06	
1.510643e-06	
8.392462e-07	
1.678492e-07	
-2.182040e-06	
-1.510643e-06	
2.182040e-06	
4.699779e-06	
2.517738e-06	
-1.174945e-06	
-4.196231e-06	
-4.531929e-06	
-5.371176e-06	
-5.203327e-06	
-4.867628e-06	
-5.706874e-06	
-5.706874e-06	
-6.042573e-06	
-5.035477e-06	
-3.356985e-06	
-4.531929e-06	
-5.371176e-06	
-3.356985e-06	
-2.182040e-06	
-4.028382e-06	
-3.524834e-06	
-5.035477e-07	
1.174945e-06	
-8.392462e-07	
-1.846342e-06	
1.007095e-06	
5.203327e-06	
6.881819e-06	
4.364080e-06	
-8.392462e-07	
-3.021286e-06	
5.035477e-07	
4.196231e-06	
3.692683e-06	
1.846342e-06	
5.035477e-07	
-1.678492e-07	
2.182040e-06	
7.217517e-06	
1.023880e-05	
1.242084e-05	
1.544213e-05	
1.829557e-05	
1.829557e-05	
1.376364e-05	
1.040665e-05	
9.567407e-06	
9.063859e-06	
7.721065e-06	
3.524834e-06	
0.000000e+00	
-2.349889e-06	
-4.531929e-06	
-6.042573e-06	
-8.056763e-06	
-1.091020e-05	
-1.393149e-05	
-1.560998e-05	
-1.728847e-05	
-1.661707e-05	
-1.460288e-05	
-1.359579e-05	
-1.359579e-05	
-1.376364e-05	
-1.661707e-05	
-1.795987e-05	
-1.594568e-05	
-1.158160e-05	
-6.546120e-06	
-2.349889e-06	
5.035477e-07	
4.028382e-06	
9.231708e-06	
1.510643e-05	
1.846342e-05	
1.678492e-05	
1.510643e-05	
1.158160e-05	
7.217517e-06	
5.203327e-06	
6.210422e-06	
6.546120e-06	
2.349889e-06	
-2.517738e-06	
-4.531929e-06	
-3.524834e-06	
-2.349889e-06	
-3.860533e-06	
-6.546120e-06	
-6.210422e-06	
-5.706874e-06	
-6.881819e-06	
-7.217517e-06	
-5.539025e-06	
-4.531929e-06	
-5.539025e-06	
-8.224612e-06	
-9.231708e-06	
-8.224612e-06	
-7.553216e-06	
-7.049668e-06	
-4.867628e-06	
-4.364080e-06	
-7.217517e-06	
-8.896010e-06	
-9.063859e-06	
-8.224612e-06	
-6.881819e-06	
-8.224612e-06	
-8.224612e-06	
-5.874723e-06	
-4.867628e-06	
-4.196231e-06	
-4.028382e-06	
-3.189135e-06	
-1.174945e-06	
-2.014191e-06	
-5.203327e-06	
-4.867628e-06	
-1.678492e-07	
1.846342e-06	
0.000000e+00	
-1.510643e-06	
-3.356985e-07	
0.000000e+00	
-2.853437e-06	
-4.196231e-06	
-3.524834e-06	
-3.860533e-06	
-4.196231e-06	
-1.678492e-06	
-5.035477e-07	
-8.392462e-07	
-1.007095e-06	
-1.342794e-06	
-2.349889e-06	
-2.517738e-06	
0.000000e+00	
4.196231e-06	
6.378271e-06	
3.021286e-06	
0.000000e+00	
-1.678492e-06	
-8.392462e-07	
4.531929e-06	
1.040665e-05	
1.359579e-05	
1.158160e-05	
9.567407e-06	
1.091020e-05	
1.191730e-05	
9.735256e-06	
6.881819e-06	
5.874723e-06	
7.049668e-06	
6.210422e-06	
5.874723e-06	
4.531929e-06	
6.713969e-07	
6.713969e-07	
2.517738e-06	
4.531929e-06	
8.056763e-06	
8.560311e-06	
7.888914e-06	
9.063859e-06	
1.040665e-05	
1.057450e-05	
1.023880e-05	
8.728161e-06	
6.210422e-06	
4.028382e-06	
1.510643e-06	
1.678492e-07	
-8.392462e-07	
-1.846342e-06	
-1.678492e-06	
-8.392462e-07	
-1.510643e-06	
-2.014191e-06	
-1.342794e-06	
-8.392462e-07	
-1.846342e-06	
-5.706874e-06	
-8.728161e-06	
-8.728161e-06	
-7.385367e-06	
-7.553216e-06	
-6.210422e-06	
-4.364080e-06	
-6.546120e-06	
-9.231708e-06	
-1.225299e-05	
-1.376364e-05	
-1.460288e-05	
-1.376364e-05	
-1.409934e-05	
-1.393149e-05	
-1.191730e-05	
-1.057450e-05	
-1.107805e-05	
-1.158160e-05	
-9.735256e-06	
-8.896010e-06	
-9.567407e-06	
-6.210422e-06	
0.000000e+00	
3.189135e-06	
4.531929e-06	
4.867628e-06	
5.371176e-06	
5.874723e-06	
4.196231e-06	
4.531929e-06	
7.888914e-06	
1.023880e-05	
1.326009e-05	
1.863127e-05	
2.333104e-05	
2.584878e-05	
2.349889e-05	
1.812772e-05	
1.158160e-05	
2.517738e-06	
-9.063859e-06	
-1.896696e-05	
-2.433814e-05	
-2.534523e-05	
-2.299535e-05	
-1.829557e-05	
-1.460288e-05	
-1.141375e-05	
-8.560311e-06	
-6.210422e-06	
-4.364080e-06	
-2.349889e-06	
8.392462e-07	
3.189135e-06	
2.517738e-06	
3.356985e-07	
-1.678492e-06	
-2.014191e-06	
-2.014191e-06	
-2.517738e-06	
-6.713969e-07	
1.174945e-06	
-1.007095e-06	
-3.692683e-06	
-3.356985e-06	
-2.853437e-06	
-4.699779e-06	
-5.874723e-06	
-4.196231e-06	
-2.349889e-06	
-2.014191e-06	
-1.174945e-06	
5.035477e-07	
2.182040e-06	
2.853437e-06	
4.699779e-06	
8.224612e-06	
9.903105e-06	
1.023880e-05	
8.896010e-06	
5.203327e-06	
2.685588e-06	
1.510643e-06	
0.000000e+00	
-8.392462e-07	
-3.524834e-06	
-7.385367e-06	
-8.392461e-06	
-7.721065e-06	
-6.378271e-06	
-6.713969e-06	
-9.567407e-06	
-1.208515e-05	
-1.074235e-05	
-6.881819e-06	
-3.860533e-06	
-6.713969e-07	
1.846342e-06	
5.539025e-06	
8.224612e-06	
7.721065e-06	
6.210422e-06	
9.063859e-06	
1.594568e-05	
2.114900e-05	
2.232395e-05	
1.980621e-05	
1.594568e-05	
1.393149e-05	
9.231708e-06	
4.699779e-06	
5.035477e-07	
-2.182040e-06	
-2.853437e-06	
-3.021286e-06	
-3.860533e-06	
-4.531929e-06	
-6.042573e-06	
-8.896010e-06	
-9.903105e-06	
-8.728161e-06	
-9.063859e-06	
-1.074235e-05	
-1.242084e-05	
-1.275654e-05	
-1.292439e-05	
-1.292439e-05	
-1.057450e-05	
-8.560311e-06	
-7.385367e-06	
-6.042573e-06	
-4.196231e-06	
-3.860533e-06	
-3.692683e-06	
-4.196231e-06	
-7.217517e-06	
-6.881819e-06	
-2.014191e-06	
1.007095e-06	
1.846342e-06	
-3.356985e-07	
-3.860533e-06	
-4.364080e-06	
-1.846342e-06	
1.510643e-06	
4.196231e-06	
6.210422e-06	
6.210422e-06	
4.531929e-06	
2.853437e-06	
3.189135e-06	
2.349889e-06	
3.356985e-07	
1.846342e-06	
6.378271e-06	
8.896010e-06	
7.888914e-06	
5.706874e-06	
3.356985e-06	
1.846342e-06	
-5.035477e-07	
-1.678492e-07	
6.713969e-07	
-1.174945e-06	
-4.196231e-06	
-6.713969e-06	
-7.049668e-06	
-5.371176e-06	
-1.678492e-06	
1.678492e-07	
-1.678492e-06	
-5.035477e-06	
-6.881819e-06	
-6.881819e-06	
-6.378271e-06	
-6.881819e-06	
-8.392461e-06	
-1.023880e-05	
-1.191730e-05	
-1.191730e-05	
-9.567407e-06	
-6.881819e-06	
-5.203327e-06	
-2.349889e-06	
0.000000e+00	
-5.035477e-07	
-3.356985e-07	
-5.035477e-07	
3.356985e-07	
0.000000e+00	
-1.174945e-06	
5.035477e-07	
4.196231e-06	
6.378271e-06	
7.049668e-06	
7.888914e-06	
8.896010e-06	
8.560311e-06	
1.124590e-05	
1.208515e-05	
9.903105e-06	
7.888914e-06	
6.546120e-06	
4.867628e-06	
4.531929e-06	
4.196231e-06	
2.517738e-06	
1.846342e-06	
2.182040e-06	
8.392462e-07	
-1.510643e-06	
-1.342794e-06	
1.678492e-06	
3.860533e-06	
2.517738e-06	
-1.678492e-06	
-4.196231e-06	
-5.874723e-06	
-6.210422e-06	
-6.546120e-06	
-7.553216e-06	
-8.224612e-06	
-8.560311e-06	
-9.567407e-06	
-8.896010e-06	
-7.049668e-06	
-6.881819e-06	
-7.385367e-06	
-6.042573e-06	
-2.517738e-06	
2.182040e-06	
3.356985e-06	
1.510643e-06	
8.392462e-07	
8.392462e-07	
2.182040e-06	
1.846342e-06	
-1.678492e-07	
-2.853437e-06	
-3.860533e-06	
-8.392462e-07	
-6.713969e-07	
-3.189135e-06	
-5.035477e-06	
-6.210422e-06	
-6.881819e-06	
-5.539025e-06	
-5.706874e-06	
-5.203327e-06	
-3.860533e-06	
-1.846342e-06	
1.174945e-06	
1.678492e-06	
-1.678492e-06	
-3.524834e-06	
-3.860533e-06	
-5.539025e-06	
-7.888914e-06	
-9.567407e-06	
-8.728161e-06	
-5.539025e-06	
-3.189135e-06	
-3.189135e-06	
-3.524834e-06	
-2.182040e-06	
3.356985e-07	
2.685588e-06	
3.692683e-06	
3.021286e-06	
1.174945e-06	
0.000000e+00	
-1.510643e-06	
-4.196231e-06	
-8.224612e-06	
-9.903105e-06	
-8.560311e-06	
-7.049668e-06	
-5.874723e-06	
-2.685588e-06	
8.392462e-07	
4.028382e-06	
6.210422e-06	
8.728161e-06	
1.208515e-05	
1.326009e-05	
1.040665e-05	
8.896010e-06	
9.399558e-06	
1.191730e-05	
1.510643e-05	
1.661707e-05	
1.695277e-05	
1.695277e-05	
1.510643e-05	
9.903105e-06	
3.356985e-06	
-5.874723e-06	
-1.577783e-05	
-2.232395e-05	
-2.417029e-05	
-2.265965e-05	
-1.863127e-05	
-1.460288e-05	
-9.567407e-06	
-5.035477e-06	
-4.699779e-06	
-3.692683e-06	
-1.342794e-06	
1.678492e-07	
1.846342e-06	
5.706874e-06	
7.553216e-06	
5.874723e-06	
3.021286e-06	
1.007095e-06	
1.510643e-06	
5.371176e-06	
5.539025e-06	
2.517738e-06	
8.392462e-07	
5.035477e-07	
-5.035477e-07	
-1.174945e-06	
-3.356985e-07	
-1.342794e-06	
-4.196231e-06	
-7.553216e-06	
-8.560311e-06	
-7.049668e-06	
-4.364080e-06	
-2.014191e-06	
-1.510643e-06	
-3.189135e-06	
-5.874723e-06	
-5.539025e-06	
-1.510643e-06	
1.846342e-06	
2.349889e-06	
1.342794e-06	
2.517738e-06	
5.035477e-06	
5.874723e-06	
5.203327e-06	
6.210422e-06	
9.567407e-06	
8.896010e-06	
3.524834e-06	
1.007095e-06	
-8.392462e-07	
-3.189135e-06	
-5.035477e-06	
-5.874723e-06	
-5.539025e-06	
-4.531929e-06	
-3.189135e-06	
-2.349889e-06	
-1.342794e-06	
-2.014191e-06	
-1.678492e-07	
3.189135e-06	
3.860533e-06	
2.182040e-06	
1.174945e-06	
5.035477e-07	
8.392462e-07	
1.678492e-06	
1.846342e-06	
8.392462e-07	
-1.846342e-06	
-2.853437e-06	
0.000000e+00	
4.196231e-06	
4.699779e-06	
2.349889e-06	
-5.035477e-07	
-2.349889e-06	
-3.692683e-06	
-4.867628e-06	
-4.699779e-06	
-4.196231e-06	
-5.035477e-06	
-6.378271e-06	
-7.888914e-06	
-7.888914e-06	
-7.385367e-06	
-8.560311e-06	
-1.191730e-05	
-1.342794e-05	
-1.376364e-05	
-1.258869e-05	
-9.903105e-06	
-6.042573e-06	
-4.196231e-06	
-3.189135e-06	
-2.182040e-06	
-1.510643e-06	
-1.007095e-06	
-1.174945e-06	
-1.510643e-06	
-1.007095e-06	
1.174945e-06	
2.182040e-06	
2.182040e-06	
3.524834e-06	
4.867628e-06	
5.035477e-06	
4.364080e-06	
3.692683e-06	
2.517738e-06	
2.853437e-06	
5.203327e-06	
4.531929e-06	
3.524834e-06	
4.028382e-06	
5.035477e-06	
6.378271e-06	
5.203327e-06	
2.014191e-06	
2.182040e-06	
5.203327e-06	
6.546120e-06	
6.210422e-06	
4.699779e-06	
6.713969e-07	
-3.524834e-06	
-3.189135e-06	
5.035477e-07	
2.349889e-06	
2.349889e-06	
3.189135e-06	
4.364080e-06	
1.174945e-06	
-2.349889e-06	
-2.182040e-06	
0.000000e+00	
3.189135e-06	
5.874723e-06	
5.539025e-06	
3.860533e-06	
3.860533e-06	
5.035477e-06	
4.867628e-06	
-1.342794e-06	
-6.713969e-06	
-5.035477e-06	
-5.035477e-07	
-6.713969e-07	
-5.874723e-06	
-9.399558e-06	
-1.023880e-05	
-1.225299e-05	
-1.426719e-05	
-1.359579e-05	
-1.023880e-05	
-8.224612e-06	
-7.888914e-06	
-5.706874e-06	
-4.867628e-06	
-4.867628e-06	
-3.189135e-06	
-1.846342e-06	
-1.174945e-06	
1.174945e-06	
4.699779e-06	
4.699779e-06	
3.860533e-06	
5.035477e-06	
8.896010e-06	
1.242084e-05	
1.242084e-05	
1.074235e-05	
8.896010e-06	
4.699779e-06	
-6.713969e-07	
-3.189135e-06	
-3.860533e-06	
-2.349889e-06	
8.392462e-07	
3.860533e-06	
2.853437e-06	
0.000000e+00	
-2.853437e-06	
-4.867628e-06	
-2.853437e-06	
-3.692683e-06	
-7.049668e-06	
-9.231708e-06	
-1.007095e-05	
-9.567407e-06	
-9.903105e-06	
-1.174945e-05	
-1.158160e-05	
-8.224612e-06	
-4.196231e-06	
-2.685588e-06	
-3.524834e-06	
-4.531929e-06	
-5.035477e-06	
-4.531929e-06	
-4.531929e-06	
-4.196231e-06	
-5.035477e-06	
-5.874723e-06	
-6.378271e-06	
-7.888914e-06	
-8.896010e-06	
-8.224612e-06	
-7.553216e-06	
-7.721065e-06	
-6.713969e-06	
-5.203327e-06	
-3.524834e-06	
-8.392462e-07	
3.356985e-07	
5.035477e-07	
2.182040e-06	
3.860533e-06	
6.378271e-06	
7.217517e-06	
6.210422e-06	
3.860533e-06	
2.014191e-06	
1.678492e-07	
-1.007095e-06	
-6.713969e-07	
-3.356985e-07	
-1.678492e-07	
1.174945e-06	
4.364080e-06	
7.888914e-06	
8.224612e-06	
7.385367e-06	
7.049668e-06	
7.553216e-06	
9.567407e-06	
1.023880e-05	
7.721065e-06	
5.203327e-06	
4.196231e-06	
3.860533e-06	
5.539025e-06	
7.049668e-06	
6.210422e-06	
4.699779e-06	
3.860533e-06	
2.517738e-06	
1.678492e-07	
-2.853437e-06	
-5.874723e-06	
-5.874723e-06	
-5.203327e-06	
-4.531929e-06	
-4.196231e-06	
-4.699779e-06	
-5.203327e-06	
-3.524834e-06	
-2.349889e-06	
-3.524834e-06	
-3.692683e-06	
-2.517738e-06	
-2.853437e-06	
-4.364080e-06	
-6.378271e-06	
-5.874723e-06	
-4.196231e-06	
-2.685588e-06	
-2.517738e-06	
-1.342794e-06	
-8.392462e-07	
0.000000e+00	
3.356985e-07	
1.678492e-07	
-1.510643e-06	
-3.189135e-06	
-4.364080e-06	
-5.203327e-06	
-6.210422e-06	
-4.867628e-06	
-1.678492e-06	
-1.678492e-07	
-2.349889e-06	
-1.846342e-06	
1.678492e-07	
5.035477e-07	
5.035477e-07	
1.678492e-07	
-6.713969e-07	
-3.356985e-07	
2.349889e-06	
4.699779e-06	
4.531929e-06	
3.524834e-06	
1.510643e-06	
1.678492e-07	
1.174945e-06	
2.853437e-06	
1.846342e-06	
8.392462e-07	
2.517738e-06	
5.371176e-06	
7.888914e-06	
1.040665e-05	
1.124590e-05	
1.040665e-05	
1.057450e-05	
1.225299e-05	
9.567407e-06	
2.182040e-06	
-6.042573e-06	
-1.292439e-05	
-1.846342e-05	
-2.098116e-05	
-1.795987e-05	
-1.460288e-05	
-1.225299e-05	
-9.735256e-06	
-9.567407e-06	
-9.735256e-06	
-7.888914e-06	
-5.203327e-06	
5.035477e-07	
5.874723e-06	
5.203327e-06	
2.685588e-06	
1.342794e-06	
-1.510643e-06	
-4.531929e-06	
-4.531929e-06	
-2.853437e-06	
-3.692683e-06	
-4.699779e-06	
-3.860533e-06	
-1.678492e-06	
-6.713969e-07	
-1.846342e-06	
-3.524834e-06	
-2.853437e-06	
-1.007095e-06	
-6.713969e-07	
-2.014191e-06	
-2.182040e-06	
-3.524834e-06	
-5.706874e-06	
-6.881819e-06	
-6.881819e-06	
-5.539025e-06	
-4.531929e-06	
-4.364080e-06	
-4.531929e-06	
-6.546120e-06	
-7.888914e-06	
-9.231708e-06	
-9.399558e-06	
-3.356985e-06	
3.860533e-06	
6.881819e-06	
7.217517e-06	
8.056763e-06	
7.553216e-06	
6.881819e-06	
6.881819e-06	
7.721065e-06	
8.392461e-06	
6.546120e-06	
4.196231e-06	
3.860533e-06	
5.035477e-06	
4.867628e-06	
2.517738e-06	
1.342794e-06	
2.349889e-06	
2.517738e-06	
3.356985e-07	
-2.182040e-06	
-1.174945e-06	
6.713969e-07	
3.356985e-07	
-5.035477e-07	
1.007095e-06	
1.678492e-06	
-5.035477e-07	
-2.853437e-06	
-4.867628e-06	
-6.042573e-06	
-4.364080e-06	
-2.853437e-06	
-3.524834e-06	
-4.028382e-06	
-5.203327e-06	
-6.546120e-06	
-6.210422e-06	
-5.203327e-06	
-4.196231e-06	
-2.182040e-06	
3.356985e-07	
1.510643e-06	
1.678492e-07	
-2.853437e-06	
-4.028382e-06	
-3.356985e-06	
-1.510643e-06	
-1.846342e-06	
-4.531929e-06	
-6.713969e-06	
-6.378271e-06	
-3.189135e-06	
0.000000e+00	
1.174945e-06	
2.182040e-06	
3.189135e-06	
4.867628e-06	
7.553216e-06	
8.560311e-06	
6.881819e-06	
3.524834e-06	
3.356985e-07	
-1.510643e-06	
-2.182040e-06	
-1.174945e-06	
-5.035477e-07	
1.678492e-07	
1.342794e-06	
1.678492e-06	
2.182040e-06	
4.196231e-06	
5.203327e-06	
4.531929e-06	
4.028382e-06	
4.867628e-06	
3.860533e-06	
0.000000e+00	
-2.182040e-06	
-6.713969e-07	
0.000000e+00	
-8.392462e-07	
-3.021286e-06	
-3.021286e-06	
-1.510643e-06	
-1.510643e-06	
-2.014191e-06	
-2.182040e-06	
-1.510643e-06	
-2.685588e-06	
-6.042573e-06	
-1.040665e-05	
-1.292439e-05	
-1.359579e-05	
-1.258869e-05	
-1.023880e-05	
-7.888914e-06	
-7.553216e-06	
-6.881819e-06	
-5.539025e-06	
-2.853437e-06	
-1.678492e-07	
3.356985e-07	
-6.713969e-07	
8.392462e-07	
1.846342e-06	
3.356985e-07	
2.517738e-06	
4.531929e-06	
2.182040e-06	
8.392462e-07	
1.007095e-06	
-8.392462e-07	
-2.349889e-06	
-2.349889e-06	
-2.182040e-06	
-6.713969e-07	
1.174945e-06	
1.510643e-06	
8.392462e-07	
-5.035477e-07	
3.356985e-07	
2.182040e-06	
3.860533e-06	
5.035477e-06	
6.881819e-06	
9.567407e-06	
9.735256e-06	
7.217517e-06	
3.189135e-06	
-8.392462e-07	
-2.182040e-06	
-8.392462e-07	
1.678492e-07	
-8.392462e-07	
-2.517738e-06	
-1.510643e-06	
-1.342794e-06	
-3.524834e-06	
-6.042573e-06	
-6.881819e-06	
-6.210422e-06	
-5.874723e-06	
-6.546120e-06	
-7.217517e-06	
-5.539025e-06	
-3.524834e-06	
-4.196231e-06	
-5.203327e-06	
-5.539025e-06	
-3.860533e-06	
-1.342794e-06	
1.678492e-07	
2.685588e-06	
3.524834e-06	
-1.678492e-07	
-2.349889e-06	
-1.510643e-06	
-2.182040e-06	
-3.692683e-06	
-3.524834e-06	
-1.510643e-06	
-1.510643e-06	
-3.189135e-06	
-4.028382e-06	
-2.014191e-06	
1.174945e-06	
8.392462e-07	
-2.517738e-06	
-3.692683e-06	
-2.685588e-06	
-3.189135e-06	
-2.517738e-06	
1.510643e-06	
5.874723e-06	
7.721065e-06	
8.728161e-06	
9.735256e-06	
1.342794e-05	
1.712062e-05	
1.443503e-05	
8.224612e-06	
5.203327e-06	
7.721065e-06	
9.903105e-06	
1.023880e-05	
9.735256e-06	
9.231708e-06	
7.553216e-06	
5.539025e-06	
3.189135e-06	
5.035477e-07	
-1.007095e-06	
-1.678492e-06	
-8.392462e-07	
-5.035477e-07	
-2.182040e-06	
-4.196231e-06	
-4.364080e-06	
-3.692683e-06	
-4.699779e-06	
-6.210422e-06	
-9.567407e-06	
-1.158160e-05	
-9.231708e-06	
-7.553216e-06	
-7.049668e-06	
-5.539025e-06	
-4.867628e-06	
-5.539025e-06	
-6.881819e-06	
-6.881819e-06	
-6.210422e-06	
-8.056763e-06	
-7.385367e-06	
-6.042573e-06	
-7.049668e-06	
-6.210422e-06	
-4.364080e-06	
-4.699779e-06	
-6.210422e-06	
-5.706874e-06	
-5.539025e-06	
-6.881819e-06	
-8.392461e-06	
-8.224612e-06	
-4.867628e-06	
-1.007095e-06	
1.174945e-06	
2.517738e-06	
2.182040e-06	
8.392462e-07	
0.000000e+00	
-1.510643e-06	
-4.028382e-06	
-8.224612e-06	
-1.443503e-05	
-1.980621e-05	
-2.131685e-05	
-1.963836e-05	
-1.292439e-05	
-5.706874e-06	
-2.517738e-06	
-2.517738e-06	
-2.182040e-06	
1.510643e-06	
6.713969e-06	
1.007095e-05	
1.023880e-05	
9.903105e-06	
1.124590e-05	
1.225299e-05	
9.567407e-06	
5.874723e-06	
5.539025e-06	
6.713969e-06	
5.874723e-06	
2.517738e-06	
-5.035477e-07	
-6.713969e-07	
1.678492e-07	
1.846342e-06	
2.014191e-06	
1.174945e-06	
-5.035477e-07	
-2.014191e-06	
-2.182040e-06	
-1.510643e-06	
-8.392462e-07	
1.007095e-06	
3.860533e-06	
4.867628e-06	
4.364080e-06	
3.021286e-06	
1.678492e-07	
-5.035477e-07	
1.678492e-07	
5.035477e-07	
1.174945e-06	
2.517738e-06	
2.517738e-06	
6.713969e-07	
-6.713969e-07	
1.174945e-06	
2.853437e-06	
1.174945e-06	
3.356985e-07	
3.356985e-07	
-1.678492e-07	
1.510643e-06	
3.189135e-06	
1.678492e-07	
-6.713969e-07	
1.174945e-06	
1.846342e-06	
2.182040e-06	
5.203327e-06	
9.063859e-06	
7.553216e-06	
1.174945e-06	
-5.035477e-07	
-3.356985e-07	
-2.182040e-06	
-4.531929e-06	
-5.371176e-06	
-2.182040e-06	
3.356985e-07	
8.392462e-07	
1.846342e-06	
2.182040e-06	
1.678492e-07	
-3.356985e-06	
-4.196231e-06	
-2.517738e-06	
-2.349889e-06	
-2.182040e-06	
-5.035477e-07	
3.189135e-06	
6.881819e-06	
9.567407e-06	
9.735256e-06	
8.392461e-06	
7.721065e-06	
5.874723e-06	
5.203327e-06	
5.706874e-06	
3.021286e-06	
-2.517738e-06	
-6.713969e-06	
-7.721065e-06	
-8.728161e-06	
-8.896010e-06	
-8.560311e-06	
-8.560311e-06	
-8.224612e-06	
-7.553216e-06	
-8.896010e-06	
-1.174945e-05	
-1.326009e-05	
-1.326009e-05	
-1.191730e-05	
-9.231708e-06	
-6.210422e-06	
-6.546120e-06	
-7.721065e-06	
-7.888914e-06	
-6.546120e-06	
-4.196231e-06	
1.678492e-07	
4.699779e-06	
5.539025e-06	
4.531929e-06	
4.699779e-06	
6.042573e-06	
6.713969e-06	
4.531929e-06	
2.853437e-06	
2.853437e-06	
2.517738e-06	
1.174945e-06	
3.356985e-07	
-6.713969e-07	
-3.692683e-06	
-5.539025e-06	
-4.196231e-06	
-4.196231e-06	
-6.546120e-06	
-8.392461e-06	
-9.735256e-06	
-9.735256e-06	
-7.553216e-06	
-6.378271e-06	
-5.203327e-06	
-3.356985e-06	
-2.182040e-06	
-5.035477e-07	
-6.713969e-07	
-2.853437e-06	
-3.860533e-06	
-4.196231e-06	
-3.021286e-06	
5.035477e-07	
1.342794e-06	
-1.174945e-06	
-2.517738e-06	
-4.867628e-06	
-9.063859e-06	
-1.023880e-05	
-1.091020e-05	
-1.057450e-05	
-8.896010e-06	
-6.881819e-06	
-4.028382e-06	
-8.392462e-07	
-1.678492e-07	
0.000000e+00	
2.182040e-06	
3.692683e-06	
3.189135e-06	
4.196231e-06	
5.539025e-06	
7.721065e-06	
9.231708e-06	
7.553216e-06	
5.203327e-06	
6.378271e-06	
1.107805e-05	
1.393149e-05	
1.326009e-05	
9.735256e-06	
7.721065e-06	
6.546120e-06	
4.196231e-06	
2.014191e-06	
-1.678492e-07	
-3.189135e-06	
-3.692683e-06	
-3.021286e-06	
-2.853437e-06	
-3.021286e-06	
-1.678492e-06	
6.713969e-07	
5.035477e-07	
-1.846342e-06	
-4.867628e-06	
-6.546120e-06	
-6.546120e-06	
-7.049668e-06	
-7.217517e-06	
-7.385367e-06	
-7.049668e-06	
-8.896010e-06	
-1.040665e-05	
-1.023880e-05	
-9.735256e-06	
-8.224612e-06	
-6.713969e-06	
-4.867628e-06	
-4.531929e-06	
-5.539025e-06	
-5.539025e-06	
-4.867628e-06	
-3.692683e-06	
-2.182040e-06	
-3.692683e-06	
-2.517738e-06	
1.846342e-06	
9.063859e-06	
1.594568e-05	
1.795987e-05	
1.493858e-05	
1.258869e-05	
1.376364e-05	
1.393149e-05	
9.567407e-06	
7.888914e-06	
8.560311e-06	
9.231708e-06	
7.721065e-06	
4.699779e-06	
1.174945e-06	
-2.349889e-06	
-3.189135e-06	
-2.182040e-06	
-1.007095e-06	
-1.678492e-06	
-2.182040e-06	
-2.349889e-06	
-1.846342e-06	
-2.182040e-06	
-2.349889e-06	
1.678492e-07	
1.510643e-06	
2.517738e-06	
4.531929e-06	
3.189135e-06	
8.392462e-07	
1.174945e-06	
8.392462e-07	
-1.678492e-07	
-8.392462e-07	
-1.678492e-07	
3.356985e-07	
-1.174945e-06	
-3.860533e-06	
-7.217517e-06	
-9.903105e-06	
-1.007095e-05	
-9.231708e-06	
-1.023880e-05	
-1.191730e-05	
-1.359579e-05	
-1.208515e-05	
-9.567407e-06	
-1.040665e-05	
-1.191730e-05	
-1.174945e-05	
-8.896010e-06	
-6.210422e-06	
-3.860533e-06	
-2.853437e-06	
-2.182040e-06	
-3.356985e-06	
-2.853437e-06	
2.182040e-06	
9.231708e-06	
1.309224e-05	
1.191730e-05	
9.063859e-06	
6.546120e-06	
6.546120e-06	
4.867628e-06	
1.174945e-06	
1.342794e-06	
4.196231e-06	
4.867628e-06	
3.860533e-06	
1.846342e-06	
-1.678492e-07	
-8.392462e-07	
-5.035477e-07	
3.356985e-07	
5.035477e-07	
6.713969e-07	
2.182040e-06	
3.860533e-06	
2.182040e-06	
-1.846342e-06	
-2.853437e-06	
-3.021286e-06	
-1.846342e-06	
-8.392462e-07	
-2.182040e-06	
-4.699779e-06	
-6.881819e-06	
-6.378271e-06	
-3.860533e-06	
-2.685588e-06	
-4.699779e-06	
-6.210422e-06	
-3.692683e-06	
-1.174945e-06	
-3.356985e-07	
-6.713969e-07	
-1.678492e-06	
-3.524834e-06	
-2.349889e-06	
5.035477e-07	
3.356985e-07	
-1.007095e-06	
-1.342794e-06	
-1.846342e-06	
-3.524834e-06	
-6.210422e-06	
-7.385367e-06	
-6.378271e-06	
-2.517738e-06	
2.517738e-06	
7.049668e-06	
9.903105e-06	
1.057450e-05	
1.040665e-05	
1.040665e-05	
1.057450e-05	
9.399558e-06	
7.553216e-06	
6.210422e-06	
4.531929e-06	
2.853437e-06	
2.182040e-06	
1.846342e-06	
1.846342e-06	
-1.678492e-07	
-3.692683e-06	
-4.028382e-06	
-1.510643e-06	
1.678492e-07	
-2.014191e-06	
-4.867628e-06	
-6.378271e-06	
-7.049668e-06	
-6.210422e-06	
-3.524834e-06	
-2.517738e-06	
-4.196231e-06	
-8.392461e-06	
-1.023880e-05	
-9.231708e-06	
-6.546120e-06	
-3.189135e-06	
0.000000e+00	
1.007095e-06	
-8.392462e-07	
-1.678492e-06	
-6.713969e-07	
1.007095e-06	
5.035477e-07	
-2.853437e-06	
-6.546120e-06	
-6.378271e-06	
-5.203327e-06	
-1.007095e-06	
3.860533e-06	
5.203327e-06	
6.881819e-06	
8.728161e-06	
5.706874e-06	
2.182040e-06	
1.510643e-06	
2.517738e-06	
1.846342e-06	
-5.035477e-07	
-3.189135e-06	
-5.539025e-06	
-5.203327e-06	
-4.196231e-06	
-5.035477e-06	
-6.210422e-06	
-5.035477e-06	
-4.196231e-06	
-2.182040e-06	
1.678492e-07	
0.000000e+00	
-8.392462e-07	
5.035477e-07	
1.678492e-07	
-1.678492e-07	
1.174945e-06	
1.678492e-06	
2.517738e-06	
1.846342e-06	
6.713969e-07	
-3.356985e-07	
0.000000e+00	
3.356985e-07	
2.182040e-06	
4.364080e-06	
7.721065e-06	
1.174945e-05	
1.477073e-05	
1.661707e-05	
1.712062e-05	
1.460288e-05	
1.292439e-05	
7.217517e-06	
-3.524834e-06	
-1.493858e-05	
-2.265965e-05	
-2.551308e-05	
-2.551308e-05	
-2.433814e-05	
-2.249180e-05	
-2.014191e-05	
-1.661707e-05	
-1.493858e-05	
-1.393149e-05	
-1.225299e-05	
-1.057450e-05	
-8.728161e-06	
-5.203327e-06	
-1.174945e-06	
1.174945e-06	
1.846342e-06	
1.510643e-06	
2.517738e-06	
5.874723e-06	
8.056763e-06	
6.378271e-06	
2.517738e-06	
-1.678492e-06	
-6.042573e-06	
-7.049668e-06	
-6.042573e-06	
-5.706874e-06	
-8.056763e-06	
-9.567407e-06	
-7.385367e-06	
-3.692683e-06	
-1.510643e-06	
1.510643e-06	
7.385367e-06	
9.903105e-06	
8.728161e-06	
5.539025e-06	
3.524834e-06	
3.860533e-06	
4.364080e-06	
2.517738e-06	
1.678492e-07	
-1.510643e-06	
-3.692683e-06	
-4.196231e-06	
-2.517738e-06	
5.035477e-07	
3.189135e-06	
4.364080e-06	
4.531929e-06	
6.881819e-06	
1.007095e-05	
8.896010e-06	
5.874723e-06	
5.203327e-06	
8.224612e-06	
1.057450e-05	
8.224612e-06	
5.539025e-06	
5.203327e-06	
5.203327e-06	
7.217517e-06	
6.881819e-06	
5.539025e-06	
5.539025e-06	
4.867628e-06	
-8.392462e-07	
-4.867628e-06	
-6.210422e-06	
-5.874723e-06	
-4.531929e-06	
-3.189135e-06	
-2.182040e-06	
-3.356985e-06	
-5.539025e-06	
-5.706874e-06	
-5.874723e-06	
-6.210422e-06	
-5.371176e-06	
-3.860533e-06	
-4.196231e-06	
-2.182040e-06	
-1.846342e-06	
-2.685588e-06	
-1.342794e-06	
0.000000e+00	
-1.174945e-06	
-3.692683e-06	
-5.035477e-06	
-3.524834e-06	
-1.678492e-06	
-3.356985e-07	
-5.035477e-07	
1.678492e-07	
3.189135e-06	
4.364080e-06	
3.860533e-06	
3.356985e-06	
3.021286e-06	
2.517738e-06	
-1.510643e-06	
-4.364080e-06	
-3.524834e-06	
-1.342794e-06	
-2.853437e-06	
-5.203327e-06	
-5.203327e-06	
-3.021286e-06	
-2.349889e-06	
-4.699779e-06	
-7.049668e-06	
-7.721065e-06	
-7.888914e-06	
-6.378271e-06	
-5.035477e-06	
-4.699779e-06	
-5.539025e-06	
-5.874723e-06	
-5.371176e-06	
-2.685588e-06	
-1.007095e-06	
-1.846342e-06	
-3.189135e-06	
-1.678492e-06	
5.035477e-07	
0.000000e+00	
5.035477e-07	
1.007095e-06	
5.035477e-07	
-1.678492e-07	
-3.356985e-07	
-1.174945e-06	
-1.174945e-06	
1.678492e-07	
1.510643e-06	
1.846342e-06	
1.007095e-06	
-1.007095e-06	
-2.685588e-06	
-1.007095e-06	
-8.392462e-07	
-2.853437e-06	
-3.356985e-06	
-1.510643e-06	
-6.713969e-07	
-2.853437e-06	
-3.524834e-06	
-1.846342e-06	
-1.007095e-06	
-1.678492e-06	
-3.021286e-06	
-3.524834e-06	
-3.524834e-06	
-5.035477e-07	
2.182040e-06	
1.174945e-06	
-3.356985e-07	
0.000000e+00	
3.189135e-06	
6.378271e-06	
6.881819e-06	
8.224612e-06	
1.158160e-05	
1.225299e-05	
8.224612e-06	
5.203327e-06	
4.364080e-06	
1.174945e-06	
-1.510643e-06	
-1.846342e-06	
5.035477e-07	
1.174945e-06	
1.678492e-07	
1.678492e-07	
5.035477e-07	
5.035477e-07	
1.174945e-06	
1.846342e-06	
1.678492e-06	
2.014191e-06	
2.349889e-06	
6.713969e-07	
-1.007095e-06	
-1.174945e-06	
-1.678492e-07	
2.182040e-06	
3.524834e-06	
3.021286e-06	
4.028382e-06	
5.539025e-06	
4.867628e-06	
4.531929e-06	
3.860533e-06	
1.846342e-06	
8.392462e-07	
-8.392462e-07	
-4.196231e-06	
-6.881819e-06	
-6.881819e-06	
-5.874723e-06	
-5.539025e-06	
-4.867628e-06	
-3.524834e-06	
-2.182040e-06	
-3.189135e-06	
-3.692683e-06	
-3.189135e-06	
-3.524834e-06	
-2.685588e-06	
-2.182040e-06	
-2.182040e-06	
-2.182040e-06	
-1.007095e-06	
-3.356985e-07	
-5.035477e-07	
-2.182040e-06	
-4.364080e-06	
-4.531929e-06	
-4.196231e-06	
-3.692683e-06	
-2.853437e-06	
-4.699779e-06	
-6.210422e-06	
-6.210422e-06	
-5.035477e-06	
-5.371176e-06	
-5.706874e-06	
-3.189135e-06	
-8.392462e-07	
-1.342794e-06	
-1.510643e-06	
-1.678492e-07	
8.392462e-07	
1.510643e-06	
3.692683e-06	
4.196231e-06	
2.853437e-06	
1.678492e-06	
5.035477e-07	
-2.182040e-06	
-2.853437e-06	
-2.182040e-06	
-1.007095e-06	
-3.356985e-07	
-1.510643e-06	
-2.182040e-06	
-1.846342e-06	
-2.853437e-06	
-2.853437e-06	
-3.860533e-06	
-5.539025e-06	
-6.546120e-06	
-7.049668e-06	
-6.042573e-06	
-4.196231e-06	
-1.846342e-06	
6.713969e-07	
4.699779e-06	
7.553216e-06	
8.560311e-06	
9.735256e-06	
9.231708e-06	
7.217517e-06	
4.196231e-06	
1.510643e-06	
-3.356985e-07	
-8.392462e-07	
-1.510643e-06	
-4.867628e-06	
-6.546120e-06	
-7.385367e-06	
-8.560311e-06	
-8.224612e-06	
-7.049668e-06	
-5.371176e-06	
-6.042573e-06	
-5.706874e-06	
-3.524834e-06	
-2.517738e-06	
-8.392462e-07	
2.014191e-06	
1.174945e-06	
-2.014191e-06	
-3.356985e-06	
-3.189135e-06	
-2.182040e-06	
-1.342794e-06	
-1.678492e-07	
1.678492e-07	
8.392462e-07	
1.174945e-06	
-5.035477e-07	
-2.349889e-06	
-3.524834e-06	
-5.371176e-06	
-6.210422e-06	
-7.553216e-06	
-9.399558e-06	
-9.567407e-06	
-7.217517e-06	
-3.692683e-06	
-3.356985e-06	
-6.378271e-06	
-7.217517e-06	
-5.874723e-06	
-2.182040e-06	
2.014191e-06	
6.546120e-06	
9.231708e-06	
7.888914e-06	
3.524834e-06	
1.174945e-06	
1.846342e-06	
1.174945e-06	
-1.678492e-07	
-5.035477e-07	
-1.007095e-06	
6.713969e-07	
5.035477e-06	
2.517738e-06	
6.713969e-07	
4.531929e-06	
8.896010e-06	
1.225299e-05	
1.443503e-05	
1.460288e-05	
1.326009e-05	
1.208515e-05	
9.567407e-06	
2.853437e-06	
-4.867628e-06	
-1.057450e-05	
-1.695277e-05	
-2.131685e-05	
-2.148470e-05	
-1.980621e-05	
-1.712062e-05	
-1.393149e-05	
-1.225299e-05	
-9.399558e-06	
-5.706874e-06	
-1.510643e-06	
3.692683e-06	
7.888914e-06	
1.141375e-05	
1.124590e-05	
8.224612e-06	
6.546120e-06	
5.874723e-06	
5.203327e-06	
5.203327e-06	
2.853437e-06	
2.014191e-06	
3.021286e-06	
2.517738e-06	
2.517738e-06	
2.182040e-06	
1.678492e-06	
8.392462e-07	
1.007095e-06	
3.524834e-06	
5.539025e-06	
5.203327e-06	
3.356985e-06	
4.196231e-06	
6.546120e-06	
6.546120e-06	
7.888914e-06	
8.896010e-06	
7.888914e-06	
7.553216e-06	
7.217517e-06	
5.203327e-06	
2.853437e-06	
2.182040e-06	
3.189135e-06	
1.342794e-06	
-1.174945e-06	
-2.685588e-06	
-2.182040e-06	
-5.035477e-07	
-5.035477e-07	
-1.510643e-06	
-3.524834e-06	
-4.364080e-06	
-4.867628e-06	
-8.056763e-06	
-8.896010e-06	
-6.210422e-06	
-8.224612e-06	
-1.275654e-05	
-1.560998e-05	
-1.426719e-05	
-1.091020e-05	
-9.735256e-06	
-7.888914e-06	
-2.685588e-06	
1.174945e-06	
2.182040e-06	
3.021286e-06	
3.356985e-06	
2.517738e-06	
3.524834e-06	
3.524834e-06	
5.035477e-07	
-1.678492e-06	
-3.189135e-06	
-4.028382e-06	
-2.014191e-06	
1.510643e-06	
3.860533e-06	
3.860533e-06	
1.007095e-06	
-1.342794e-06	
-1.342794e-06	
-2.349889e-06	
-4.028382e-06	
-4.867628e-06	
-4.699779e-06	
-3.692683e-06	
-3.356985e-06	
-5.539025e-06	
-7.721065e-06	
-8.392461e-06	
-7.888914e-06	
-5.706874e-06	
-4.196231e-06	
-5.371176e-06	
-8.224612e-06	
-8.728161e-06	
-9.567407e-06	
-1.074235e-05	
-1.158160e-05	
-9.903105e-06	
-6.210422e-06	
-5.035477e-07	
3.021286e-06	
2.517738e-06	
1.007095e-06	
1.846342e-06	
3.021286e-06	
2.182040e-06	
2.014191e-06	
2.853437e-06	
3.860533e-06	
5.706874e-06	
7.721065e-06	
9.567407e-06	
1.191730e-05	
1.158160e-05	
8.392461e-06	
5.539025e-06	
3.860533e-06	
5.203327e-06	
6.378271e-06	
4.531929e-06	
1.510643e-06	
1.678492e-07	
-1.174945e-06	
-2.517738e-06	
-4.196231e-06	
-7.217517e-06	
-7.721065e-06	
-5.706874e-06	
-4.196231e-06	
-5.539025e-06	
-7.721065e-06	
-8.224612e-06	
-6.881819e-06	
-5.203327e-06	
-4.867628e-06	
-5.203327e-06	
-4.364080e-06	
-2.517738e-06	
5.035477e-07	
2.853437e-06	
0.000000e+00	
-3.189135e-06	
-2.853437e-06	
1.007095e-06	
5.035477e-06	
4.699779e-06	
2.517738e-06	
1.174945e-06	
2.517738e-06	
2.182040e-06	
1.174945e-06	
0.000000e+00	
-2.349889e-06	
-5.706874e-06	
-8.224612e-06	
-7.553216e-06	
-6.881819e-06	
-5.874723e-06	
-3.356985e-06	
-2.517738e-06	
-1.678492e-06	
6.713969e-07	
1.846342e-06	
1.510643e-06	
2.517738e-06	
1.174945e-06	
0.000000e+00	
2.182040e-06	
5.203327e-06	
5.874723e-06	
5.035477e-06	
5.035477e-06	
5.706874e-06	
3.860533e-06	
2.182040e-06	
3.524834e-06	
7.553216e-06	
7.553216e-06	
2.517738e-06	
-1.678492e-06	
-2.853437e-06	
-3.860533e-06	
-7.049668e-06	
-9.903105e-06	
-8.560311e-06	
-6.546120e-06	
-6.881819e-06	
-5.539025e-06	
-2.349889e-06	
-2.853437e-06	
-3.860533e-06	
-2.853437e-06	
-1.678492e-06	
2.517738e-06	
6.378271e-06	
7.888914e-06	
8.392461e-06	
8.392461e-06	
7.217517e-06	
6.546120e-06	
5.874723e-06	
2.182040e-06	
-1.678492e-07	
1.007095e-06	
4.364080e-06	
5.203327e-06	
4.531929e-06	
1.846342e-06	
-1.846342e-06	
-4.531929e-06	
-5.203327e-06	
-4.364080e-06	
-4.699779e-06	
-4.531929e-06	
-6.546120e-06	
-1.007095e-05	
-1.023880e-05	
-7.888914e-06	
-6.042573e-06	
-5.035477e-06	
-4.196231e-06	
-2.182040e-06	
-6.713969e-07	
3.189135e-06	
9.063859e-06	
1.007095e-05	
1.023880e-05	
8.560311e-06	
6.378271e-06	
5.203327e-06	
5.371176e-06	
4.364080e-06	
1.342794e-06	
-1.678492e-07	
1.678492e-07	
-8.392462e-07	
-2.517738e-06	
-3.189135e-06	
-6.546120e-06	
-8.392461e-06	
-7.888914e-06	
-6.210422e-06	
-4.364080e-06	
-2.853437e-06	
-2.349889e-06	
-4.364080e-06	
-7.385367e-06	
-5.539025e-06	
3.356985e-07	
6.378271e-06	
1.057450e-05	
1.292439e-05	
1.426719e-05	
1.309224e-05	
7.553216e-06	
8.392462e-07	
-5.874723e-06	
-1.359579e-05	
-2.165255e-05	
-2.635233e-05	
-2.702373e-05	
-2.568093e-05	
-2.249180e-05	
-1.762417e-05	
-1.359579e-05	
-9.399558e-06	
-5.371176e-06	
-2.517738e-06	
-6.713969e-07	
1.174945e-06	
3.860533e-06	
7.553216e-06	
9.903105e-06	
9.903105e-06	
9.735256e-06	
9.567407e-06	
1.023880e-05	
1.107805e-05	
9.903105e-06	
7.553216e-06	
5.539025e-06	
3.021286e-06	
-8.392462e-07	
-5.203327e-06	
-8.224612e-06	
-9.567407e-06	
-9.567407e-06	
-8.392461e-06	
-7.217517e-06	
-6.881819e-06	
-6.546120e-06	
-3.524834e-06	
1.510643e-06	
3.860533e-06	
3.524834e-06	
2.182040e-06	
2.517738e-06	
5.203327e-06	
7.888914e-06	
7.721065e-06	
5.203327e-06	
3.524834e-06	
4.028382e-06	
4.867628e-06	
4.196231e-06	
2.014191e-06	
0.000000e+00	
-5.035477e-07	
-1.174945e-06	
-2.517738e-06	
-2.853437e-06	
-2.182040e-06	
-2.349889e-06	
-5.203327e-06	
-6.881819e-06	
-6.713969e-06	
-8.224612e-06	
-9.903105e-06	
-8.560311e-06	
-5.706874e-06	
-2.182040e-06	
1.678492e-07	
0.000000e+00	
-2.517738e-06	
-4.867628e-06	
-5.874723e-06	
-5.203327e-06	
-4.531929e-06	
-4.699779e-06	
-6.713969e-06	
-9.399558e-06	
-9.567407e-06	
-8.392461e-06	
-9.231708e-06	
-9.063859e-06	
-7.217517e-06	
-4.699779e-06	
-1.678492e-06	
-3.356985e-07	
3.860533e-06	
9.063859e-06	
1.124590e-05	
1.158160e-05	
1.141375e-05	
1.124590e-05	
7.049668e-06	
2.517738e-06	
1.174945e-06	
6.713969e-07	
-5.035477e-07	
-2.517738e-06	
-8.392462e-07	
3.356985e-07	
-1.174945e-06	
-6.713969e-07	
5.035477e-07	
5.035477e-07	
-1.678492e-07	
1.678492e-07	
2.517738e-06	
3.356985e-06	
4.196231e-06	
5.203327e-06	
5.874723e-06	
3.692683e-06	
1.007095e-06	
1.342794e-06	
1.846342e-06	
6.713969e-07	
-3.356985e-07	
-2.014191e-06	
-2.182040e-06	
0.000000e+00	
6.713969e-07	
-1.678492e-07	
-2.685588e-06	
-4.364080e-06	
-3.524834e-06	
-2.182040e-06	
-1.510643e-06	
1.174945e-06	
2.182040e-06	
-3.356985e-07	
-2.685588e-06	
-8.392462e-07	
3.189135e-06	
3.692683e-06	
1.846342e-06	
3.356985e-07	
-8.392462e-07	
-8.392462e-07	
-8.392462e-07	
-1.007095e-06	
-1.174945e-06	
-1.678492e-06	
-1.342794e-06	
-1.174945e-06	
-5.035477e-07	
6.713969e-07	
1.174945e-06	
1.510643e-06	
1.174945e-06	
5.035477e-07	
2.349889e-06	
4.364080e-06	
2.349889e-06	
-1.678492e-06	
-3.189135e-06	
-3.356985e-07	
8.392462e-07	
-3.189135e-06	
-4.028382e-06	
-1.510643e-06	
-3.356985e-07	
-5.035477e-07	
-1.510643e-06	
-3.524834e-06	
-5.874723e-06	
-6.881819e-06	
-7.721065e-06	
-1.023880e-05	
-1.208515e-05	
-9.231708e-06	
-5.539025e-06	
-6.546120e-06	
-9.567407e-06	
-1.091020e-05	
-1.074235e-05	
-9.063859e-06	
-7.217517e-06	
-5.371176e-06	
-5.203327e-06	
-5.874723e-06	
-4.196231e-06	
-1.846342e-06	
6.713969e-07	
2.853437e-06	
6.546120e-06	
9.903105e-06	
1.057450e-05	
1.023880e-05	
1.091020e-05	
1.057450e-05	
1.023880e-05	
1.007095e-05	
9.231708e-06	
8.896010e-06	
8.224612e-06	
7.553216e-06	
6.546120e-06	
4.364080e-06	
5.035477e-07	
-2.349889e-06	
-2.182040e-06	
-2.517738e-06	
-2.517738e-06	
-5.035477e-07	
1.174945e-06	
1.678492e-07	
-6.713969e-07	
1.007095e-06	
3.189135e-06	
3.860533e-06	
2.182040e-06	
1.510643e-06	
3.860533e-06	
3.860533e-06	
1.007095e-06	
-2.853437e-06	
-4.699779e-06	
-3.021286e-06	
-2.182040e-06	
-2.517738e-06	
-4.699779e-06	
-5.371176e-06	
-4.531929e-06	
-5.874723e-06	
-7.888914e-06	
-9.063859e-06	
-9.567407e-06	
-8.224612e-06	
-5.371176e-06	
-1.678492e-06	
-1.174945e-06	
-5.035477e-06	
-5.539025e-06	
-2.685588e-06	
-8.392462e-07	
-2.517738e-06	
-5.706874e-06	
-6.378271e-06	
-4.196231e-06	
-2.014191e-06	
-1.678492e-07	
2.014191e-06	
1.846342e-06	
1.846342e-06	
1.007095e-06	
-2.853437e-06	
-7.888914e-06	
-9.063859e-06	
-6.378271e-06	
-3.189135e-06	
-1.678492e-06	
-1.174945e-06	
-3.356985e-07	
0.000000e+00	
5.035477e-07	
5.035477e-07	
3.356985e-06	
7.721065e-06	
8.056763e-06	
6.042573e-06	
5.539025e-06	
5.035477e-06	
2.853437e-06	
1.510643e-06	
6.713969e-07	
8.392462e-07	
-6.713969e-07	
-2.517738e-06	
-2.182040e-06	
-8.392462e-07	
-5.035477e-07	
-3.356985e-07	
-6.713969e-07	
-3.189135e-06	
-3.524834e-06	
-3.860533e-06	
-7.217517e-06	
-1.074235e-05	
-8.896010e-06	
-5.539025e-06	
-5.539025e-06	
-6.546120e-06	
-5.706874e-06	
-4.196231e-06	
-4.531929e-06	
-4.028382e-06	
-1.007095e-06	
0.000000e+00	
-1.174945e-06	
-1.678492e-06	
5.035477e-07	
2.349889e-06	
4.196231e-06	
6.546120e-06	
7.721065e-06	
7.721065e-06	
5.539025e-06	
2.014191e-06	
-2.182040e-06	
-9.231708e-06	
-1.628138e-05	
-2.098116e-05	
-2.265965e-05	
-2.114900e-05	
-1.695277e-05	
-1.242084e-05	
-9.399558e-06	
-6.713969e-06	
-3.189135e-06	
1.510643e-06	
6.378271e-06	
8.392461e-06	
9.567407e-06	
1.057450e-05	
1.326009e-05	
1.359579e-05	
1.107805e-05	
7.721065e-06	
5.035477e-06	
3.860533e-06	
3.860533e-06	
3.021286e-06	
2.349889e-06	
1.174945e-06	
1.510643e-06	
1.678492e-06	
1.007095e-06	
3.189135e-06	
5.874723e-06	
5.203327e-06	
3.189135e-06	
0.000000e+00	
-1.846342e-06	
-2.182040e-06	
-2.014191e-06	
-6.713969e-07	
1.510643e-06	
3.356985e-07	
-3.021286e-06	
-3.524834e-06	
-2.853437e-06	
-4.196231e-06	
-5.203327e-06	
-3.692683e-06	
-2.182040e-06	
-2.182040e-06	
-3.356985e-06	
-5.203327e-06	
-5.874723e-06	
-7.049668e-06	
-8.392461e-06	
-8.560311e-06	
-7.888914e-06	
-5.874723e-06	
-5.035477e-06	
-5.539025e-06	
-6.881819e-06	
-7.721065e-06	
-7.888914e-06	
-6.881819e-06	
-4.196231e-06	
-1.510643e-06	
-5.035477e-07	
6.713969e-07	
3.524834e-06	
6.210422e-06	
7.888914e-06	
8.896010e-06	
8.896010e-06	
9.231708e-06	
1.124590e-05	
1.359579e-05	
1.409934e-05	
1.309224e-05	
1.309224e-05	
1.091020e-05	
7.385367e-06	
6.713969e-06	
5.203327e-06	
4.531929e-06	
3.524834e-06	
2.517738e-06	
2.182040e-06	
1.846342e-06	
1.342794e-06	
1.678492e-07	
8.392462e-07	
6.713969e-07	
-1.846342e-06	
-5.203327e-06	
-7.049668e-06	
-9.063859e-06	
-1.091020e-05	
-1.023880e-05	
-9.231708e-06	
-1.023880e-05	
-1.091020e-05	
-9.231708e-06	
-8.560311e-06	
-9.903105e-06	
-1.158160e-05	
-1.141375e-05	
-1.124590e-05	
-9.567407e-06	
-6.713969e-06	
-4.028382e-06	
-8.392462e-07	
3.356985e-07	
-2.182040e-06	
-2.014191e-06	
1.174945e-06	
4.196231e-06	
4.699779e-06	
5.706874e-06	
6.210422e-06	
2.853437e-06	
-1.510643e-06	
-3.021286e-06	
-2.517738e-06	
-1.678492e-07	
1.510643e-06	
1.678492e-07	
-2.685588e-06	
-3.189135e-06	
-1.678492e-07	
2.182040e-06	
1.846342e-06	
0.000000e+00	
-1.174945e-06	
-2.014191e-06	
-4.196231e-06	
-5.203327e-06	
-3.524834e-06	
-3.356985e-07	
3.189135e-06	
6.378271e-06	
8.224612e-06	
1.023880e-05	
1.225299e-05	
1.242084e-05	
1.242084e-05	
1.124590e-05	
9.063859e-06	
7.049668e-06	
5.874723e-06	
5.706874e-06	
5.539025e-06	
5.035477e-06	
2.517738e-06	
-1.678492e-07	
-1.174945e-06	
-8.392462e-07	
-1.678492e-06	
-4.364080e-06	
-7.888914e-06	
-9.063859e-06	
-8.896010e-06	
-7.385367e-06	
-6.210422e-06	
-6.378271e-06	
-5.706874e-06	
-5.874723e-06	
-7.049668e-06	
-8.224612e-06	
-6.546120e-06	
-6.042573e-06	
-7.553216e-06	
-6.042573e-06	
-4.531929e-06	
-7.217517e-06	
-1.007095e-05	
-9.903105e-06	
-7.553216e-06	
-4.699779e-06	
-5.203327e-06	
-6.042573e-06	
-4.867628e-06	
-2.853437e-06	
-2.349889e-06	
-3.356985e-06	
-2.853437e-06	
-1.510643e-06	
-1.342794e-06	
-1.510643e-06	
-1.510643e-06	
5.035477e-07	
3.189135e-06	
2.853437e-06	
2.182040e-06	
3.189135e-06	
4.699779e-06	
4.364080e-06	
3.524834e-06	
1.678492e-06	
1.846342e-06	
3.860533e-06	
4.364080e-06	
5.203327e-06	
6.378271e-06	
7.888914e-06	
6.210422e-06	
1.846342e-06	
-2.853437e-06	
-4.364080e-06	
-4.867628e-06	
-5.035477e-06	
-3.356985e-06	
-3.524834e-06	
-4.699779e-06	
-3.860533e-06	
-4.364080e-06	
-5.035477e-06	
-5.874723e-06	
-7.553216e-06	
-5.706874e-06	
-2.853437e-06	
-2.685588e-06	
-5.035477e-06	
-6.378271e-06	
-7.888914e-06	
-8.728161e-06	
-7.217517e-06	
-2.853437e-06	
3.356985e-07	
8.392462e-07	
2.182040e-06	
3.356985e-06	
2.182040e-06	
0.000000e+00	
-2.014191e-06	
-2.182040e-06	
-4.867628e-06	
-7.888914e-06	
-6.546120e-06	
-3.524834e-06	
-8.392462e-07	
0.000000e+00	
1.174945e-06	
3.860533e-06	
4.699779e-06	
3.189135e-06	
1.846342e-06	
0.000000e+00	
-1.007095e-06	
-1.678492e-06	
-1.007095e-06	
1.007095e-06	
2.182040e-06	
4.364080e-06	
7.888914e-06	
1.258869e-05	
1.460288e-05	
1.326009e-05	
1.191730e-05	
9.903105e-06	
4.699779e-06	
1.678492e-07	
1.342794e-06	
4.028382e-06	
3.021286e-06	
1.174945e-06	
3.356985e-06	
5.539025e-06	
4.867628e-06	
3.860533e-06	
2.517738e-06	
1.174945e-06	
2.182040e-06	
3.692683e-06	
3.692683e-06	
1.342794e-06	
2.517738e-06	
7.049668e-06	
8.560311e-06	
6.881819e-06	
5.035477e-06	
4.364080e-06	
4.196231e-06	
1.007095e-06	
-2.349889e-06	
-4.699779e-06	
-4.364080e-06	
-6.210422e-06	
-4.867628e-06	
1.007095e-06	
3.356985e-06	
2.349889e-06	
3.692683e-06	
6.546120e-06	
7.553216e-06	
6.881819e-06	
4.028382e-06	
-2.182040e-06	
-1.124590e-05	
-2.064546e-05	
-2.702373e-05	
-3.038071e-05	
-3.105211e-05	
-3.004501e-05	
-2.568093e-05	
-1.896696e-05	
-1.393149e-05	
-1.007095e-05	
-7.553216e-06	
-6.042573e-06	
-4.028382e-06	
-8.392462e-07	
3.692683e-06	
5.706874e-06	
3.021286e-06	
-8.392462e-07	
-2.517738e-06	
-6.713969e-07	
1.510643e-06	
3.356985e-06	
3.692683e-06	
3.860533e-06	
4.531929e-06	
4.531929e-06	
6.378271e-06	
7.721065e-06	
4.867628e-06	
1.342794e-06	
1.174945e-06	
2.517738e-06	
3.021286e-06	
3.189135e-06	
3.189135e-06	
2.517738e-06	
1.678492e-07	
1.678492e-07	
1.174945e-06	
0.000000e+00	
-2.182040e-06	
-4.028382e-06	
-4.531929e-06	
-3.524834e-06	
-5.539025e-06	
-9.231708e-06	
-9.567407e-06	
-7.888914e-06	
-6.378271e-06	
-6.042573e-06	
-6.042573e-06	
-5.706874e-06	
-4.867628e-06	
-2.853437e-06	
-5.035477e-07	
-5.035477e-07	
-1.678492e-06	
-6.713969e-07	
2.517738e-06	
2.853437e-06	
1.846342e-06	
2.853437e-06	
5.203327e-06	
5.539025e-06	
4.531929e-06	
4.196231e-06	
4.028382e-06	
3.860533e-06	
4.867628e-06	
7.217517e-06	
6.546120e-06	
3.860533e-06	
2.517738e-06	
2.517738e-06	
0.000000e+00	
-1.678492e-06	
-6.713969e-07	
3.356985e-07	
-2.014191e-06	
-3.692683e-06	
-2.853437e-06	
-3.189135e-06	
-4.531929e-06	
-6.042573e-06	
-5.874723e-06	
-4.196231e-06	
-3.524834e-06	
-3.356985e-06	
-2.517738e-06	
-1.174945e-06	
-8.392462e-07	
-1.846342e-06	
-3.524834e-06	
-3.189135e-06	
-1.678492e-06	
-1.510643e-06	
-2.853437e-06	
-3.021286e-06	
-8.392462e-07	
-1.678492e-07	
-3.356985e-07	
-1.510643e-06	
-2.349889e-06	
-1.007095e-06	
8.392462e-07	
1.846342e-06	
2.349889e-06	
3.189135e-06	
2.349889e-06	
0.000000e+00	
-1.007095e-06	
1.007095e-06	
3.189135e-06	
1.846342e-06	
-8.392462e-07	
-2.517738e-06	
-2.182040e-06	
-1.510643e-06	
-2.182040e-06	
-1.174945e-06	
1.007095e-06	
-6.713969e-07	
-2.853437e-06	
-2.182040e-06	
-1.174945e-06	
-8.392462e-07	
-1.678492e-07	
-1.174945e-06	
-1.846342e-06	
-1.846342e-06	
-1.007095e-06	
-1.174945e-06	
-3.189135e-06	
-5.539025e-06	
-5.706874e-06	
-5.874723e-06	
-5.539025e-06	
-4.531929e-06	
-1.846342e-06	
-1.510643e-06	
-3.860533e-06	
-6.042573e-06	
-5.706874e-06	
-4.699779e-06	
-6.378271e-06	
-8.896010e-06	
-9.567407e-06	
-6.210422e-06	
-4.867628e-06	
-3.860533e-06	
-8.392462e-07	
-6.713969e-07	
-1.846342e-06	
1.678492e-07	
4.196231e-06	
6.378271e-06	
6.378271e-06	
3.524834e-06	
1.510643e-06	
8.392462e-07	
8.392462e-07	
-3.356985e-07	
-3.524834e-06	
-5.874723e-06	
-3.692683e-06	
1.510643e-06	
4.531929e-06	
5.539025e-06	
5.203327e-06	
4.867628e-06	
5.706874e-06	
5.874723e-06	
3.356985e-06	
-3.356985e-07	
-3.021286e-06	
-3.860533e-06	
-3.021286e-06	
-3.692683e-06	
-4.531929e-06	
-6.042573e-06	
-7.385367e-06	
-5.035477e-06	
-1.510643e-06	
0.000000e+00	
-1.174945e-06	
-2.517738e-06	
-4.196231e-06	
-5.203327e-06	
-3.524834e-06	
-2.853437e-06	
-1.510643e-06	
1.678492e-07	
1.678492e-06	
5.035477e-06	
5.539025e-06	
2.517738e-06	
1.510643e-06	
3.860533e-06	
4.028382e-06	
3.692683e-06	
3.860533e-06	
3.189135e-06	
2.349889e-06	
3.356985e-07	
1.678492e-07	
4.531929e-06	
6.881819e-06	
4.196231e-06	
1.510643e-06	
-1.342794e-06	
-4.196231e-06	
-6.210422e-06	
-4.867628e-06	
-1.678492e-06	
2.349889e-06	
5.539025e-06	
6.546120e-06	
5.203327e-06	
3.021286e-06	
2.853437e-06	
5.539025e-06	
2.853437e-06	
-1.342794e-06	
-1.846342e-06	
-1.846342e-06	
-2.182040e-06	
-2.853437e-06	
-2.853437e-06	
-1.678492e-06	
-3.356985e-07	
8.392462e-07	
2.853437e-06	
3.189135e-06	
4.028382e-06	
4.364080e-06	
2.349889e-06	
-2.182040e-06	
-5.035477e-06	
-4.196231e-06	
-6.713969e-07	
2.182040e-06	
3.524834e-06	
2.853437e-06	
1.174945e-06	
-1.510643e-06	
-4.531929e-06	
-8.224612e-06	
-1.057450e-05	
-1.107805e-05	
-7.721065e-06	
-5.035477e-06	
-4.699779e-06	
-6.210422e-06	
-8.896010e-06	
-8.896010e-06	
-8.392461e-06	
-8.392461e-06	
-6.042573e-06	
-2.853437e-06	
-1.678492e-07	
6.713969e-07	
-1.678492e-06	
-4.867628e-06	
-5.203327e-06	
-3.021286e-06	
-2.685588e-06	
-4.196231e-06	
-6.210422e-06	
-7.049668e-06	
-7.049668e-06	
-7.888914e-06	
-9.063859e-06	
-7.553216e-06	
-3.860533e-06	
-2.685588e-06	
-5.035477e-06	
-8.896010e-06	
-7.721065e-06	
-5.874723e-06	
-7.553216e-06	
-8.224612e-06	
-7.049668e-06	
-2.517738e-06	
3.860533e-06	
8.224612e-06	
1.275654e-05	
1.896696e-05	
2.366674e-05	
2.719158e-05	
3.038071e-05	
2.836652e-05	
2.098116e-05	
1.191730e-05	
3.189135e-06	
-5.203327e-06	
-1.242084e-05	
-1.762417e-05	
-2.131685e-05	
-2.098116e-05	
-1.628138e-05	
-9.567407e-06	
-5.035477e-06	
-4.867628e-06	
-2.853437e-06	
1.174945e-06	
3.524834e-06	
4.867628e-06	
2.182040e-06	
-1.678492e-06	
-1.678492e-06	
2.517738e-06	
4.867628e-06	
3.692683e-06	
2.685588e-06	
1.342794e-06	
1.342794e-06	
2.517738e-06	
3.189135e-06	
1.846342e-06	
2.517738e-06	
5.874723e-06	
8.224612e-06	
7.553216e-06	
4.867628e-06	
2.517738e-06	
-1.174945e-06	
-4.531929e-06	
-4.531929e-06	
-3.189135e-06	
-3.692683e-06	
-3.860533e-06	
-1.174945e-06	
1.846342e-06	
3.021286e-06	
3.189135e-06	
3.860533e-06	
2.517738e-06	
2.182040e-06	
3.021286e-06	
2.685588e-06	
2.349889e-06	
0.000000e+00	
-1.846342e-06	
-2.014191e-06	
-2.853437e-06	
-4.196231e-06	
-2.685588e-06	
-2.014191e-06	
-4.196231e-06	
-5.874723e-06	
-5.874723e-06	
-7.217517e-06	
-9.231708e-06	
-1.158160e-05	
-1.510643e-05	
-1.628138e-05	
-1.393149e-05	
-1.091020e-05	
-8.728161e-06	
-5.706874e-06	
-2.853437e-06	
-1.342794e-06	
-1.678492e-07	
2.517738e-06	
5.203327e-06	
8.224612e-06	
1.124590e-05	
1.124590e-05	
1.040665e-05	
8.224612e-06	
5.371176e-06	
2.853437e-06	
1.678492e-07	
-3.692683e-06	
-6.378271e-06	
-5.706874e-06	
-3.524834e-06	
-3.356985e-06	
-3.524834e-06	
-3.356985e-06	
-3.189135e-06	
-2.853437e-06	
-3.356985e-06	
-3.189135e-06	
-3.692683e-06	
-7.888914e-06	
-1.057450e-05	
-7.553216e-06	
-5.706874e-06	
-5.706874e-06	
-2.853437e-06	
-1.174945e-06	
-1.510643e-06	
-1.510643e-06	
-3.021286e-06	
-4.364080e-06	
-4.196231e-06	
-4.196231e-06	
-3.356985e-06	
-5.035477e-07	
2.349889e-06	
1.510643e-06	
1.678492e-07	
8.392462e-07	
2.517738e-06	
2.349889e-06	
0.000000e+00	
-5.035477e-07	
-6.713969e-07	
-1.174945e-06	
-3.356985e-07	
2.349889e-06	
4.699779e-06	
4.531929e-06	
2.853437e-06	
1.007095e-06	
1.510643e-06	
3.356985e-06	
6.546120e-06	
8.056763e-06	
7.553216e-06	
9.063859e-06	
1.191730e-05	
1.275654e-05	
7.049668e-06	
3.356985e-07	
3.356985e-07	
2.182040e-06	
8.392462e-07	
-1.174945e-06	
-1.846342e-06	
-2.853437e-06	
-3.021286e-06	
-1.342794e-06	
-5.035477e-07	
0.000000e+00	
1.678492e-07	
-1.678492e-06	
-3.860533e-06	
-5.203327e-06	
-4.699779e-06	
-3.860533e-06	
-2.517738e-06	
-1.678492e-07	
1.174945e-06	
-5.035477e-07	
-6.713969e-07	
2.014191e-06	
4.364080e-06	
2.182040e-06	
-5.035477e-07	
-1.846342e-06	
-2.182040e-06	
-2.182040e-06	
-5.035477e-07	
-1.678492e-06	
-3.860533e-06	
-2.853437e-06	
-1.510643e-06	
-1.174945e-06	
-1.678492e-06	
-3.356985e-07	
1.678492e-07	
-1.678492e-07	
1.678492e-06	
5.035477e-06	
3.524834e-06	
1.678492e-07	
-1.174945e-06	
-1.007095e-06	
-8.392462e-07	
-2.014191e-06	
-1.174945e-06	
1.678492e-06	
3.860533e-06	
4.699779e-06	
3.860533e-06	
2.014191e-06	
2.014191e-06	
2.014191e-06	
3.356985e-07	
-1.678492e-06	
-4.867628e-06	
-7.217517e-06	
-6.210422e-06	
-5.203327e-06	
-5.874723e-06	
-8.224612e-06	
-9.231708e-06	
-1.074235e-05	
-1.292439e-05	
-1.225299e-05	
-1.107805e-05	
-1.208515e-05	
-1.359579e-05	
-1.477073e-05	
-1.460288e-05	
-1.359579e-05	
-1.023880e-05	
-7.888914e-06	
-8.896010e-06	
-9.567407e-06	
-6.042573e-06	
-2.014191e-06	
-5.035477e-07	
-1.678492e-07	
0.000000e+00	
1.174945e-06	
4.531929e-06	
7.049668e-06	
6.546120e-06	
6.546120e-06	
6.210422e-06	
6.546120e-06	
7.888914e-06	
7.888914e-06	
8.224612e-06	
9.231708e-06	
9.735256e-06	
7.888914e-06	
6.210422e-06	
4.196231e-06	
1.174945e-06	
-5.035477e-07	
-3.356985e-07	
-1.174945e-06	
-1.846342e-06	
-2.014191e-06	
-2.182040e-06	
-3.021286e-06	
-3.692683e-06	
-4.531929e-06	
-7.217517e-06	
-7.721065e-06	
-7.553216e-06	
-5.706874e-06	
-1.846342e-06	
1.678492e-07	
6.713969e-07	
-1.678492e-07	
1.678492e-07	
3.860533e-06	
9.735256e-06	
1.326009e-05	
1.242084e-05	
1.091020e-05	
7.553216e-06	
4.699779e-06	
4.364080e-06	
4.867628e-06	
2.853437e-06	
-8.392462e-07	
-3.189135e-06	
-5.371176e-06	
-5.203327e-06	
-3.860533e-06	
-3.524834e-06	
-5.706874e-06	
-7.217517e-06	
-5.874723e-06	
-3.356985e-06	
-2.853437e-06	
-3.524834e-06	
-2.182040e-06	
6.713969e-07	
2.349889e-06	
2.349889e-06	
8.392462e-07	
-1.342794e-06	
-1.846342e-06	
-3.356985e-07	
2.517738e-06	
3.356985e-06	
2.014191e-06	
-1.510643e-06	
-4.867628e-06	
-5.706874e-06	
-5.706874e-06	
-6.210422e-06	
-5.874723e-06	
-2.853437e-06	
8.392462e-07	
2.349889e-06	
3.860533e-06	
5.539025e-06	
5.203327e-06	
3.021286e-06	
1.678492e-07	
-2.685588e-06	
-2.685588e-06	
-3.356985e-07	
5.035477e-07	
-1.678492e-07	
-1.678492e-07	
1.174945e-06	
1.174945e-06	
-1.678492e-06	
-3.356985e-06	
-2.853437e-06	
-3.524834e-06	
-3.524834e-06	
-4.196231e-06	
-6.546120e-06	
-8.728161e-06	
-6.546120e-06	
-2.349889e-06	
-8.392462e-07	
-2.349889e-06	
-4.867628e-06	
-5.035477e-06	
-4.364080e-06	
-3.021286e-06	
-2.182040e-06	
-3.524834e-06	
-4.867628e-06	
-4.531929e-06	
-4.196231e-06	
-2.853437e-06	
1.007095e-06	
2.517738e-06	
5.035477e-07	
1.846342e-06	
5.539025e-06	
1.091020e-05	
1.678492e-05	
1.930266e-05	
1.712062e-05	
1.309224e-05	
9.231708e-06	
4.364080e-06	
-2.349889e-06	
-9.735256e-06	
-1.712062e-05	
-2.165255e-05	
-2.299535e-05	
-1.930266e-05	
-1.258869e-05	
-9.735256e-06	
-7.553216e-06	
-4.699779e-06	
-1.510643e-06	
5.035477e-07	
1.174945e-06	
8.392462e-07	
3.189135e-06	
4.196231e-06	
1.846342e-06	
0.000000e+00	
-3.356985e-06	
-7.385367e-06	
-8.896010e-06	
-7.385367e-06	
-5.203327e-06	
-5.874723e-06	
-8.392461e-06	
-8.392461e-06	
-4.364080e-06	
-5.035477e-07	
-1.007095e-06	
-2.014191e-06	
1.678492e-07	
3.524834e-06	
4.196231e-06	
4.531929e-06	
5.203327e-06	
6.881819e-06	
4.699779e-06	
3.524834e-06	
5.371176e-06	
6.546120e-06	
5.539025e-06	
5.203327e-06	
6.042573e-06	
7.553216e-06	
6.546120e-06	
2.182040e-06	
0.000000e+00	
2.517738e-06	
5.203327e-06	
5.203327e-06	
4.531929e-06	
6.546120e-06	
1.057450e-05	
1.242084e-05	
1.208515e-05	
1.174945e-05	
1.174945e-05	
8.896010e-06	
2.517738e-06	
-1.510643e-06	
-1.510643e-06	
-3.189135e-06	
-5.874723e-06	
-6.546120e-06	
-8.224612e-06	
-1.007095e-05	
-9.231708e-06	
-7.217517e-06	
-5.706874e-06	
-4.364080e-06	
-4.867628e-06	
-6.210422e-06	
-6.713969e-06	
-7.721065e-06	
-6.881819e-06	
-5.706874e-06	
-4.699779e-06	
-4.867628e-06	
-6.378271e-06	
-5.539025e-06	
-8.392462e-07	
3.860533e-06	
3.860533e-06	
1.510643e-06	
5.035477e-07	
-1.510643e-06	
-2.853437e-06	
-1.510643e-06	
8.392462e-07	
1.174945e-06	
-3.356985e-07	
-3.524834e-06	
-4.699779e-06	
-5.539025e-06	
-4.867628e-06	
-4.867628e-06	
-5.874723e-06	
-4.364080e-06	
-2.853437e-06	
-3.692683e-06	
-5.706874e-06	
-6.210422e-06	
-6.210422e-06	
-5.874723e-06	
-5.706874e-06	
-4.531929e-06	
-2.853437e-06	
-2.182040e-06	
-2.853437e-06	
-2.517738e-06	
-1.510643e-06	
-2.349889e-06	
-3.860533e-06	
-1.174945e-06	
3.524834e-06	
3.860533e-06	
2.182040e-06	
0.000000e+00	
-8.392462e-07	
-3.524834e-06	
-5.874723e-06	
-3.524834e-06	
-5.035477e-07	
1.678492e-07	
1.007095e-06	
1.342794e-06	
-6.713969e-07	
-2.853437e-06	
-4.028382e-06	
-2.349889e-06	
-1.510643e-06	
-2.014191e-06	
-3.189135e-06	
-4.196231e-06	
-3.860533e-06	
-2.853437e-06	
-2.182040e-06	
-3.356985e-07	
4.699779e-06	
9.231708e-06	
1.007095e-05	
7.049668e-06	
3.189135e-06	
2.517738e-06	
4.699779e-06	
5.203327e-06	
3.860533e-06	
2.182040e-06	
-6.713969e-07	
-2.517738e-06	
-3.524834e-06	
0.000000e+00	
3.189135e-06	
5.874723e-06	
8.560311e-06	
7.888914e-06	
5.035477e-06	
1.174945e-06	
5.035477e-07	
1.174945e-06	
2.853437e-06	
2.517738e-06	
8.392462e-07	
5.035477e-07	
2.182040e-06	
3.860533e-06	
4.531929e-06	
3.524834e-06	
1.678492e-07	
-1.678492e-06	
-1.678492e-07	
-1.678492e-07	
-3.189135e-06	
-5.874723e-06	
-8.056763e-06	
-1.091020e-05	
-1.225299e-05	
-1.091020e-05	
-7.553216e-06	
-4.196231e-06	
-3.189135e-06	
-3.524834e-06	
-4.364080e-06	
-3.524834e-06	
-8.392462e-07	
-1.678492e-07	
-2.182040e-06	
-6.546120e-06	
-9.567407e-06	
-1.174945e-05	
-1.309224e-05	
-1.426719e-05	
-1.326009e-05	
-9.735256e-06	
-6.210422e-06	
-3.021286e-06	
-8.392462e-07	
-5.035477e-07	
-8.392462e-07	
-8.392462e-07	
0.000000e+00	
3.189135e-06	
6.881819e-06	
9.063859e-06	
1.107805e-05	
1.225299e-05	
1.158160e-05	
8.224612e-06	
4.196231e-06	
2.349889e-06	
6.713969e-07	
-2.853437e-06	
-3.189135e-06	
-2.853437e-06	
-3.356985e-06	
-3.524834e-06	
-2.349889e-06	
-4.196231e-06	
-6.546120e-06	
-3.692683e-06	
-1.007095e-06	
5.035477e-07	
6.713969e-07	
-1.342794e-06	
-4.196231e-06	
-3.356985e-06	
-2.014191e-06	
5.035477e-07	
4.364080e-06	
6.881819e-06	
7.888914e-06	
8.728161e-06	
9.567407e-06	
9.903105e-06	
8.224612e-06	
5.874723e-06	
2.349889e-06	
-1.678492e-07	
-1.174945e-06	
-3.860533e-06	
-4.867628e-06	
-5.874723e-06	
-5.706874e-06	
-3.524834e-06	
-2.685588e-06	
-4.028382e-06	
-6.042573e-06	
-6.042573e-06	
-4.867628e-06	
-5.539025e-06	
-7.888914e-06	
-9.903105e-06	
-1.091020e-05	
-9.903105e-06	
-7.888914e-06	
-6.546120e-06	
-6.881819e-06	
-8.392461e-06	
-8.560311e-06	
-6.881819e-06	
-4.699779e-06	
-4.867628e-06	
-4.531929e-06	
-1.510643e-06	
-3.356985e-07	
0.000000e+00	
1.510643e-06	
2.853437e-06	
5.874723e-06	
1.242084e-05	
1.963836e-05	
2.400244e-05	
2.366674e-05	
2.265965e-05	
2.232395e-05	
1.863127e-05	
1.191730e-05	
5.203327e-06	
-3.524834e-06	
-1.426719e-05	
-2.131685e-05	
-2.299535e-05	
-2.165255e-05	
-1.762417e-05	
-1.275654e-05	
-1.124590e-05	
-1.057450e-05	
-6.881819e-06	
-1.342794e-06	
3.524834e-06	
5.035477e-06	
4.364080e-06	
2.517738e-06	
5.035477e-07	
-5.035477e-07	
-2.517738e-06	
-5.539025e-06	
-6.210422e-06	
-4.196231e-06	
-4.867628e-06	
-7.888914e-06	
-7.721065e-06	
-3.524834e-06	
-1.678492e-07	
2.517738e-06	
2.182040e-06	
-3.356985e-07	
-6.713969e-07	
2.349889e-06	
1.846342e-06	
-1.678492e-07	
2.349889e-06	
7.888914e-06	
9.399558e-06	
5.706874e-06	
3.189135e-06	
2.182040e-06	
2.517738e-06	
2.853437e-06	
3.692683e-06	
6.210422e-06	
7.553216e-06	
5.874723e-06	
1.174945e-06	
-5.035477e-06	
-7.888914e-06	
-8.056763e-06	
-9.063859e-06	
-9.567407e-06	
-9.567407e-06	
-9.567407e-06	
-8.728161e-06	
-6.881819e-06	
-3.692683e-06	
-2.853437e-06	
-5.035477e-07	
3.356985e-06	
4.364080e-06	
3.021286e-06	
1.678492e-07	
-2.349889e-06	
-2.182040e-06	
1.007095e-06	
4.867628e-06	
6.546120e-06	
6.881819e-06	
7.888914e-06	
8.560311e-06	
9.231708e-06	
1.124590e-05	
1.124590e-05	
7.553216e-06	
6.210422e-06	
7.553216e-06	
6.378271e-06	
2.517738e-06	
-5.035477e-07	
-1.846342e-06	
-2.182040e-06	
-2.517738e-06	
-3.524834e-06	
-6.210422e-06	
-9.567407e-06	
-9.903105e-06	
-8.560311e-06	
-8.224612e-06	
-7.049668e-06	
-6.713969e-06	
-7.385367e-06	
-7.385367e-06	
-6.378271e-06	
-4.531929e-06	
-3.692683e-06	
-5.203327e-06	
-6.881819e-06	
-6.881819e-06	
-5.371176e-06	
-5.035477e-06	
-2.517738e-06	
-1.007095e-06	
-1.510643e-06	
-1.678492e-06	
-2.349889e-06	
-3.524834e-06	
-3.021286e-06	
-2.853437e-06	
-2.182040e-06	
0.000000e+00	
3.692683e-06	
5.874723e-06	
6.210422e-06	
4.028382e-06	
1.342794e-06	
5.035477e-07	
6.713969e-07	
-1.678492e-07	
-8.392462e-07	
-1.342794e-06	
-1.510643e-06	
-2.014191e-06	
-4.867628e-06	
-6.378271e-06	
-5.706874e-06	
-2.853437e-06	
8.392462e-07	
1.678492e-06	
1.846342e-06	
5.035477e-07	
-8.392462e-07	
-5.035477e-07	
1.678492e-07	
-1.678492e-07	
-1.007095e-06	
3.356985e-07	
2.182040e-06	
2.182040e-06	
1.510643e-06	
2.182040e-06	
1.678492e-06	
1.846342e-06	
2.517738e-06	
2.014191e-06	
3.189135e-06	
4.364080e-06	
2.517738e-06	
-3.356985e-07	
-2.685588e-06	
-4.699779e-06	
-6.042573e-06	
-5.035477e-06	
-2.853437e-06	
-4.028382e-06	
-6.378271e-06	
-8.224612e-06	
-1.023880e-05	
-1.091020e-05	
-7.553216e-06	
-4.196231e-06	
-2.853437e-06	
-1.678492e-06	
8.392462e-07	
1.678492e-06	
1.007095e-06	
-8.392462e-07	
-3.860533e-06	
-4.531929e-06	
-2.182040e-06	
-1.678492e-07	
-1.678492e-06	
-3.524834e-06	
-3.356985e-06	
-2.517738e-06	
-4.699779e-06	
-6.546120e-06	
-6.042573e-06	
-2.349889e-06	
1.510643e-06	
4.364080e-06	
4.364080e-06	
2.853437e-06	
-3.356985e-07	
-3.189135e-06	
-2.349889e-06	
2.349889e-06	
6.546120e-06	
9.231708e-06	
7.888914e-06	
6.881819e-06	
8.224612e-06	
7.888914e-06	
8.056763e-06	
1.057450e-05	
1.158160e-05	
1.057450e-05	
9.567407e-06	
7.553216e-06	
5.035477e-06	
3.860533e-06	
2.853437e-06	
1.510643e-06	
-5.035477e-07	
-3.524834e-06	
-5.203327e-06	
-6.546120e-06	
-8.560311e-06	
-9.903105e-06	
-9.399558e-06	
-6.210422e-06	
-2.182040e-06	
3.356985e-07	
-8.392462e-07	
-5.035477e-07	
1.342794e-06	
1.174945e-06	
-1.510643e-06	
-3.189135e-06	
-1.007095e-06	
1.007095e-06	
8.392462e-07	
6.713969e-07	
1.174945e-06	
0.000000e+00	
-2.182040e-06	
-3.860533e-06	
-3.189135e-06	
1.007095e-06	
2.014191e-06	
2.349889e-06	
5.203327e-06	
6.378271e-06	
5.035477e-06	
2.014191e-06	
-2.182040e-06	
-8.224612e-06	
-1.242084e-05	
-1.527428e-05	
-1.829557e-05	
-2.165255e-05	
-2.400244e-05	
-2.249180e-05	
-1.745632e-05	
-1.242084e-05	
-1.158160e-05	
-1.258869e-05	
-1.091020e-05	
-6.210422e-06	
-3.189135e-06	
-2.349889e-06	
-8.392462e-07	
1.678492e-06	
2.517738e-06	
1.342794e-06	
-2.517738e-06	
-5.539025e-06	
-7.385367e-06	
-7.888914e-06	
-8.224612e-06	
-5.539025e-06	
-1.846342e-06	
2.517738e-06	
6.210422e-06	
9.567407e-06	
1.191730e-05	
1.242084e-05	
1.326009e-05	
1.460288e-05	
1.258869e-05	
9.735256e-06	
7.888914e-06	
8.224612e-06	
9.231708e-06	
9.231708e-06	
9.231708e-06	
9.231708e-06	
9.063859e-06	
6.042573e-06	
2.517738e-06	
6.713969e-07	
-1.174945e-06	
-4.531929e-06	
-4.364080e-06	
-1.510643e-06	
-1.174945e-06	
-3.021286e-06	
-4.531929e-06	
-6.210422e-06	
-6.713969e-06	
-6.210422e-06	
-8.896010e-06	
-1.158160e-05	
-1.225299e-05	
-1.326009e-05	
-1.292439e-05	
-1.174945e-05	
-1.057450e-05	
-8.896010e-06	
-6.713969e-06	
-2.853437e-06	
-5.035477e-07	
-8.392462e-07	
-5.035477e-07	
3.524834e-06	
7.217517e-06	
1.040665e-05	
1.124590e-05	
1.040665e-05	
9.903105e-06	
8.728161e-06	
5.874723e-06	
3.189135e-06	
2.182040e-06	
2.517738e-06	
4.028382e-06	
3.524834e-06	
1.678492e-07	
-1.174945e-06	
1.678492e-07	
-8.392462e-07	
-3.356985e-06	
-3.524834e-06	
-2.853437e-06	
-2.517738e-06	
-3.021286e-06	
-4.196231e-06	
-3.356985e-06	
-3.189135e-06	
-4.028382e-06	
-3.860533e-06	
-3.356985e-06	
-1.678492e-06	
1.678492e-07	
2.014191e-06	
5.539025e-06	
8.392461e-06	
9.231708e-06	
7.888914e-06	
5.035477e-06	
3.692683e-06	
3.860533e-06	
5.035477e-06	
3.189135e-06	
-8.392462e-07	
-5.035477e-06	
-8.896010e-06	
-1.091020e-05	
-1.225299e-05	
-1.225299e-05	
-1.141375e-05	
-9.567407e-06	
-5.706874e-06	
-2.853437e-06	
-2.853437e-06	
-3.021286e-06	
-3.524834e-06	
-4.028382e-06	
-3.524834e-06	
-5.371176e-06	
-6.210422e-06	
-3.524834e-06	
-1.678492e-06	
1.174945e-06	
3.189135e-06	
3.860533e-06	
5.539025e-06	
6.881819e-06	
6.042573e-06	
3.189135e-06	
1.174945e-06	
5.035477e-07	
8.392462e-07	
1.846342e-06	
1.846342e-06	
8.392462e-07	
5.035477e-07	
1.174945e-06	
3.021286e-06	
3.860533e-06	
1.846342e-06	
-5.035477e-07	
-1.846342e-06	
-2.182040e-06	
-2.853437e-06	
-3.524834e-06	
-3.356985e-06	
-1.510643e-06	
1.678492e-07	
8.392462e-07	
1.510643e-06	
2.517738e-06	
4.867628e-06	
5.539025e-06	
5.706874e-06	
4.531929e-06	
4.196231e-06	
4.699779e-06	
5.203327e-06	
7.217517e-06	
9.735256e-06	
1.057450e-05	
8.056763e-06	
3.860533e-06	
-5.035477e-07	
-2.517738e-06	
-4.196231e-06	
-5.874723e-06	
-6.881819e-06	
-7.553216e-06	
-8.392461e-06	
-1.057450e-05	
-9.903105e-06	
-6.881819e-06	
-4.867628e-06	
-3.524834e-06	
-2.182040e-06	
0.000000e+00	
5.035477e-07	
-3.356985e-07	
-3.189135e-06	
-5.203327e-06	
-4.699779e-06	
-4.364080e-06	
-7.721065e-06	
-1.023880e-05	
-9.567407e-06	
-9.567407e-06	
-1.107805e-05	
-1.158160e-05	
-1.023880e-05	
-8.896010e-06	
-9.063859e-06	
-9.231708e-06	
-7.385367e-06	
-4.867628e-06	
-2.517738e-06	
-2.182040e-06	
-1.678492e-06	
2.685588e-06	
6.042573e-06	
5.203327e-06	
4.699779e-06	
4.867628e-06	
5.035477e-06	
6.546120e-06	
7.721065e-06	
7.049668e-06	
7.217517e-06	
7.385367e-06	
7.888914e-06	
8.224612e-06	
5.203327e-06	
1.007095e-06	
-1.678492e-06	
-1.510643e-06	
-1.174945e-06	
-3.860533e-06	
-6.210422e-06	
-5.203327e-06	
-3.021286e-06	
-1.174945e-06	
-1.678492e-06	
-3.692683e-06	
-3.524834e-06	
1.678492e-07	
0.000000e+00	
-3.189135e-06	
-4.364080e-06	
-5.371176e-06	
-5.874723e-06	
-4.364080e-06	
-1.174945e-06	
2.853437e-06	
5.203327e-06	
5.874723e-06	
3.524834e-06	
5.035477e-07	
-1.007095e-06	
-2.182040e-06	
-4.867628e-06	
-6.546120e-06	
-6.881819e-06	
-5.874723e-06	
-1.510643e-06	
3.356985e-07	
-1.510643e-06	
-2.853437e-06	
-3.356985e-07	
8.392462e-07	
-1.678492e-07	
0.000000e+00	
-6.713969e-07	
-3.692683e-06	
-5.539025e-06	
-6.210422e-06	
-6.546120e-06	
-5.371176e-06	
-4.531929e-06	
-5.035477e-06	
-5.539025e-06	
-4.028382e-06	
-1.846342e-06	
-1.174945e-06	
-8.392462e-07	
-1.678492e-07	
1.678492e-07	
0.000000e+00	
1.678492e-07	
1.846342e-06	
1.678492e-07	
-2.853437e-06	
-3.356985e-06	
-1.007095e-06	
1.174945e-06	
2.182040e-06	
4.196231e-06	
6.378271e-06	
7.385367e-06	
7.049668e-06	
8.224612e-06	
1.023880e-05	
9.231708e-06	
5.035477e-06	
-5.035477e-07	
1.678492e-07	
4.028382e-06	
4.364080e-06	
2.349889e-06	
1.846342e-06	
3.189135e-06	
5.203327e-06	
5.203327e-06	
5.203327e-06	
6.546120e-06	
6.546120e-06	
3.356985e-06	
6.713969e-07	
1.007095e-06	
-2.853437e-06	
-5.706874e-06	
-5.539025e-06	
-6.546120e-06	
-7.888914e-06	
-9.231708e-06	
-1.023880e-05	
-9.903105e-06	
-8.224612e-06	
-8.560311e-06	
-8.224612e-06	
-8.392461e-06	
-7.553216e-06	
-7.217517e-06	
-7.553216e-06	
-5.874723e-06	
-1.678492e-06	
2.685588e-06	
5.203327e-06	
3.860533e-06	
-1.007095e-06	
-4.867628e-06	
-5.203327e-06	
-5.035477e-06	
-5.371176e-06	
-5.203327e-06	
-3.692683e-06	
-2.685588e-06	
-3.356985e-06	
-2.853437e-06	
-1.678492e-07	
2.182040e-06	
3.860533e-06	
6.042573e-06	
4.699779e-06	
1.678492e-06	
2.182040e-06	
5.706874e-06	
7.888914e-06	
6.546120e-06	
4.196231e-06	
2.517738e-06	
-1.174945e-06	
-4.867628e-06	
-4.867628e-06	
-2.853437e-06	
-1.846342e-06	
-2.853437e-06	
-6.210422e-06	
-7.049668e-06	
-5.539025e-06	
-5.874723e-06	
-7.721065e-06	
-6.713969e-06	
-5.539025e-06	
-6.042573e-06	
-6.042573e-06	
-6.378271e-06	
-5.539025e-06	
-3.021286e-06	
-6.713969e-07	
0.000000e+00	
0.000000e+00	
1.174945e-06	
1.678492e-07	
0.000000e+00	
1.342794e-06	
3.189135e-06	
2.014191e-06	
6.713969e-07	
2.517738e-06	
5.874723e-06	
6.210422e-06	
4.196231e-06	
3.860533e-06	
4.867628e-06	
5.706874e-06	
4.364080e-06	
1.174945e-06	
-1.846342e-06	
-3.356985e-06	
-3.189135e-06	
-3.189135e-06	
-3.860533e-06	
-6.881819e-06	
-8.056763e-06	
-7.217517e-06	
-8.224612e-06	
-9.903105e-06	
-1.158160e-05	
-1.242084e-05	
-9.735256e-06	
-5.539025e-06	
-1.007095e-06	
1.342794e-06	
1.174945e-06	
8.392462e-07	
1.174945e-06	
3.860533e-06	
8.560311e-06	
8.224612e-06	
4.196231e-06	
3.189135e-06	
4.531929e-06	
5.706874e-06	
7.217517e-06	
5.874723e-06	
3.189135e-06	
4.364080e-06	
5.706874e-06	
4.196231e-06	
3.524834e-06	
1.174945e-06	
-2.182040e-06	
-4.196231e-06	
-5.874723e-06	
-6.881819e-06	
-4.531929e-06	
-3.189135e-06	
-3.524834e-06	
-3.524834e-06	
-2.349889e-06	
-5.035477e-07	
-1.678492e-07	
1.678492e-06	
6.042573e-06	
9.063859e-06	
1.057450e-05	
9.567407e-06	
7.888914e-06	
5.539025e-06	
4.699779e-06	
3.524834e-06	
2.853437e-06	
3.189135e-06	
2.349889e-06	
-1.342794e-06	
-3.860533e-06	
-5.706874e-06	
-5.706874e-06	
-5.203327e-06	
-7.553216e-06	
-1.023880e-05	
-8.896010e-06	
-7.553216e-06	
-9.567407e-06	
-9.903105e-06	
-6.881819e-06	
-3.860533e-06	
-3.524834e-06	
-3.860533e-06	
-3.860533e-06	
-2.853437e-06	
-1.846342e-06	
5.035477e-07	
6.713969e-07	
-1.510643e-06	
-2.014191e-06	
-1.510643e-06	
-2.014191e-06	
-3.021286e-06	
-4.364080e-06	
-5.035477e-06	
-8.392462e-07	
2.349889e-06	
1.678492e-06	
1.846342e-06	
3.189135e-06	
2.517738e-06	
5.035477e-07	
-5.035477e-07	
-1.678492e-06	
-2.517738e-06	
-3.189135e-06	
-3.524834e-06	
-3.860533e-06	
-4.531929e-06	
-5.706874e-06	
-5.035477e-06	
-4.699779e-06	
-6.546120e-06	
-7.553216e-06	
-7.385367e-06	
-4.196231e-06	
-1.007095e-06	
1.007095e-06	
1.174945e-06	
-3.356985e-07	
-4.196231e-06	
-7.049668e-06	
-6.210422e-06	
-4.867628e-06	
-6.210422e-06	
-6.042573e-06	
-4.531929e-06	
-2.517738e-06	
-1.174945e-06	
-1.342794e-06	
-1.007095e-06	
-8.392462e-07	
-8.392462e-07	
-1.678492e-06	
-3.021286e-06	
-3.021286e-06	
-3.356985e-06	
-5.203327e-06	
-7.385367e-06	
-6.881819e-06	
-3.860533e-06	
0.000000e+00	
3.189135e-06	
7.385367e-06	
1.057450e-05	
8.896010e-06	
2.853437e-06	
-2.349889e-06	
-5.706874e-06	
-8.224612e-06	
-6.042573e-06	
-2.853437e-06	
-1.342794e-06	
-1.174945e-06	
-2.517738e-06	
-1.510643e-06	
0.000000e+00	
5.035477e-07	
1.007095e-06	
1.678492e-06	
1.846342e-06	
2.853437e-06	
6.713969e-06	
8.560311e-06	
8.224612e-06	
5.874723e-06	
3.189135e-06	
1.678492e-06	
2.014191e-06	
1.510643e-06	
1.342794e-06	
2.517738e-06	
5.539025e-06	
9.231708e-06	
1.174945e-05	
1.409934e-05	
1.493858e-05	
1.359579e-05	
1.326009e-05	
1.124590e-05	
7.049668e-06	
3.860533e-06	
2.182040e-06	
3.021286e-06	
1.174945e-06	
-1.846342e-06	
-2.853437e-06	
-3.692683e-06	
-4.867628e-06	
-7.217517e-06	
-7.217517e-06	
-6.546120e-06	
-5.539025e-06	
-2.853437e-06	
-2.853437e-06	
-5.035477e-06	
-5.203327e-06	
-3.356985e-06	
-2.349889e-06	
-1.678492e-06	
-1.846342e-06	
-2.014191e-06	
-1.846342e-06	
-2.517738e-06	
-5.539025e-06	
-8.560311e-06	
-9.231708e-06	
-8.728161e-06	
-1.023880e-05	
-1.191730e-05	
-1.074235e-05	
-8.392461e-06	
-7.888914e-06	
-7.217517e-06	
-6.210422e-06	
-5.539025e-06	
-4.699779e-06	
-3.524834e-06	
-1.174945e-06	
1.510643e-06	
1.510643e-06	
1.174945e-06	
3.021286e-06	
4.364080e-06	
4.364080e-06	
6.378271e-06	
8.560311e-06	
7.217517e-06	
3.524834e-06	
1.007095e-06	
1.510643e-06	
1.846342e-06	
5.035477e-07	
5.035477e-07	
1.510643e-06	
3.356985e-07	
-4.028382e-06	
-7.385367e-06	
-7.217517e-06	
-6.210422e-06	
-4.531929e-06	
-3.692683e-06	
-2.182040e-06	
-1.174945e-06	
5.035477e-07	
3.189135e-06	
3.356985e-06	
3.356985e-07	
-2.685588e-06	
-1.174945e-06	
4.364080e-06	
1.040665e-05	
9.399558e-06	
5.203327e-06	
5.203327e-06	
6.881819e-06	
7.217517e-06	
7.721065e-06	
7.217517e-06	
4.867628e-06	
3.189135e-06	
2.517738e-06	
-1.678492e-07	
-1.846342e-06	
-3.860533e-06	
-5.371176e-06	
-5.203327e-06	
-4.867628e-06	
-4.531929e-06	
-4.867628e-06	
-5.874723e-06	
-5.874723e-06	
-7.553216e-06	
-9.567407e-06	
-1.023880e-05	
-1.158160e-05	
-1.225299e-05	
-9.903105e-06	
-7.721065e-06	
-6.378271e-06	
-7.049668e-06	
-9.903105e-06	
-1.057450e-05	
-9.567407e-06	
-7.888914e-06	
-6.546120e-06	
-4.196231e-06	
-1.846342e-06	
-3.356985e-07	
8.392462e-07	
1.174945e-06	
3.189135e-06	
6.546120e-06	
6.546120e-06	
3.356985e-06	
6.713969e-07	
1.174945e-06	
4.364080e-06	
5.706874e-06	
4.364080e-06	
3.021286e-06	
2.182040e-06	
2.685588e-06	
4.364080e-06	
4.364080e-06	
3.189135e-06	
2.685588e-06	
2.517738e-06	
6.713969e-07	
-1.174945e-06	
-1.510643e-06	
3.356985e-07	
1.678492e-06	
2.685588e-06	
4.531929e-06	
8.896010e-06	
1.023880e-05	
6.881819e-06	
3.189135e-06	
1.342794e-06	
2.014191e-06	
2.853437e-06	
3.860533e-06	
3.860533e-06	
6.713969e-07	
-2.853437e-06	
-5.203327e-06	
-7.217517e-06	
-9.231708e-06	
-8.560311e-06	
-7.217517e-06	
-6.881819e-06	
-6.210422e-06	
-4.531929e-06	
-4.867628e-06	
-6.546120e-06	
-7.888914e-06	
-8.392461e-06	
-9.231708e-06	
-1.007095e-05	
-9.903105e-06	
-7.049668e-06	
-4.531929e-06	
-2.853437e-06	
-1.007095e-06	
-1.510643e-06	
-1.007095e-06	
-6.713969e-07	
-2.349889e-06	
-2.517738e-06	
-2.853437e-06	
-1.510643e-06	
5.035477e-07	
2.853437e-06	
3.524834e-06	
6.881819e-06	
1.091020e-05	
1.057450e-05	
7.553216e-06	
3.524834e-06	
1.846342e-06	
2.349889e-06	
2.685588e-06	
2.517738e-06	
1.174945e-06	
-1.510643e-06	
-2.853437e-06	
-2.853437e-06	
-1.678492e-06	
-1.846342e-06	
-4.196231e-06	
-5.874723e-06	
-5.874723e-06	
-6.881819e-06	
-7.553216e-06	
-8.056763e-06	
-9.399558e-06	
-1.107805e-05	
-1.007095e-05	
-6.881819e-06	
-6.378271e-06	
-6.210422e-06	
-6.546120e-06	
-6.713969e-06	
-5.706874e-06	
-3.524834e-06	
-2.182040e-06	
-2.182040e-06	
-1.510643e-06	
-1.174945e-06	
-1.846342e-06	
8.392462e-07	
6.881819e-06	
1.158160e-05	
1.057450e-05	
4.531929e-06	
0.000000e+00	
-1.678492e-06	
-2.182040e-06	
-1.174945e-06	
5.035477e-07	
4.196231e-06	
5.203327e-06	
4.699779e-06	
5.539025e-06	
8.728161e-06	
1.107805e-05	
1.057450e-05	
1.107805e-05	
1.409934e-05	
1.829557e-05	
2.047761e-05	
1.930266e-05	
1.795987e-05	
1.594568e-05	
1.393149e-05	
1.174945e-05	
3.356985e-06	
-8.224612e-06	
-1.728847e-05	
-2.333104e-05	
-2.584878e-05	
-2.786297e-05	
-2.719158e-05	
-2.467384e-05	
-2.198825e-05	
-1.812772e-05	
-1.275654e-05	
-8.224612e-06	
-6.546120e-06	
-6.881819e-06	
-4.364080e-06	
-1.510643e-06	
-3.356985e-07	
1.678492e-06	
3.189135e-06	
3.189135e-06	
1.678492e-06	
8.392462e-07	
-8.392462e-07	
-1.342794e-06	
1.678492e-07	
0.000000e+00	
-5.035477e-07	
-1.678492e-07	
5.035477e-07	
1.678492e-07	
1.510643e-06	
4.531929e-06	
5.371176e-06	
4.867628e-06	
5.539025e-06	
4.699779e-06	
1.510643e-06	
0.000000e+00	
6.713969e-07	
1.678492e-06	
-1.678492e-07	
-3.692683e-06	
-5.203327e-06	
-4.028382e-06	
-1.007095e-06	
2.517738e-06	
3.524834e-06	
2.182040e-06	
1.174945e-06	
-5.035477e-07	
-6.713969e-07	
-8.392462e-07	
-1.678492e-07	
1.678492e-07	
-2.349889e-06	
-5.874723e-06	
-5.035477e-06	
-1.007095e-06	
2.853437e-06	
5.035477e-06	
4.867628e-06	
3.189135e-06	
3.189135e-06	
2.517738e-06	
0.000000e+00	
5.035477e-07	
3.356985e-06	
5.035477e-06	
4.531929e-06	
1.510643e-06	
-1.678492e-06	
-1.342794e-06	
0.000000e+00	
-3.356985e-07	
-2.014191e-06	
1.678492e-07	
3.860533e-06	
3.524834e-06	
5.035477e-07	
1.174945e-06	
3.692683e-06	
6.042573e-06	
8.056763e-06	
6.378271e-06	
1.510643e-06	
-1.846342e-06	
-4.699779e-06	
-7.049668e-06	
-7.217517e-06	
-6.713969e-06	
-5.874723e-06	
-7.049668e-06	
-8.896010e-06	
-9.231708e-06	
-9.231708e-06	
-9.567407e-06	
-9.567407e-06	
-8.560311e-06	
-7.721065e-06	
-6.881819e-06	
-6.210422e-06	
-5.874723e-06	
-5.874723e-06	
-7.049668e-06	
-8.392461e-06	
-8.224612e-06	
-7.385367e-06	
-6.546120e-06	
-7.888914e-06	
-1.141375e-05	
-1.124590e-05	
-9.063859e-06	
-9.735256e-06	
-1.158160e-05	
-8.560311e-06	
-2.853437e-06	
1.007095e-06	
1.007095e-06	
1.174945e-06	
2.517738e-06	
4.867628e-06	
7.385367e-06	
9.567407e-06	
1.057450e-05	
1.040665e-05	
1.107805e-05	
1.174945e-05	
1.023880e-05	
8.224612e-06	
7.888914e-06	
8.224612e-06	
8.224612e-06	
6.042573e-06	
3.860533e-06	
3.860533e-06	
7.049668e-06	
8.560311e-06	
6.713969e-06	
4.531929e-06	
1.510643e-06	
-3.189135e-06	
-7.553216e-06	
-8.560311e-06	
-6.713969e-06	
-5.203327e-06	
-4.364080e-06	
-3.189135e-06	
-3.524834e-06	
-4.364080e-06	
-4.867628e-06	
-6.378271e-06	
-7.217517e-06	
-8.224612e-06	
-8.560311e-06	
-9.063859e-06	
-7.553216e-06	
-2.853437e-06	
3.189135e-06	
5.874723e-06	
5.035477e-06	
3.189135e-06	
1.174945e-06	
-5.035477e-07	
-3.189135e-06	
-4.867628e-06	
-5.706874e-06	
-5.035477e-06	
-4.196231e-06	
-4.867628e-06	
-5.706874e-06	
-6.713969e-06	
-7.217517e-06	
-6.881819e-06	
-7.049668e-06	
-7.721065e-06	
-7.217517e-06	
-4.364080e-06	
0.000000e+00	
4.531929e-06	
7.888914e-06	
1.091020e-05	
1.040665e-05	
6.378271e-06	
4.867628e-06	
8.224612e-06	
1.191730e-05	
1.124590e-05	
7.217517e-06	
6.210422e-06	
9.903105e-06	
1.023880e-05	
6.378271e-06	
3.692683e-06	
4.196231e-06	
4.699779e-06	
3.189135e-06	
-1.007095e-06	
-4.196231e-06	
-5.203327e-06	
-4.364080e-06	
-3.860533e-06	
-5.539025e-06	
-8.224612e-06	
-9.231708e-06	
-1.023880e-05	
-1.091020e-05	
-9.231708e-06	
-5.874723e-06	
-4.364080e-06	
-4.531929e-06	
-4.867628e-06	
-4.364080e-06	
-2.517738e-06	
-5.035477e-07	
-5.035477e-07	
-1.678492e-06	
-1.678492e-06	
-1.174945e-06	
-1.342794e-06	
3.356985e-07	
2.685588e-06	
4.531929e-06	
3.860533e-06	
2.014191e-06	
1.678492e-06	
1.174945e-06	
-5.035477e-07	
-3.021286e-06	
-5.539025e-06	
-6.210422e-06	
-5.539025e-06	
-4.699779e-06	
-5.706874e-06	
-6.881819e-06	
-4.867628e-06	
-1.510643e-06	
-1.342794e-06	
-1.510643e-06	
2.517738e-06	
7.049668e-06	
9.231708e-06	
9.903105e-06	
1.023880e-05	
1.007095e-05	
9.399558e-06	
8.896010e-06	
9.063859e-06	
8.728161e-06	
7.217517e-06	
6.881819e-06	
7.721065e-06	
6.042573e-06	
4.867628e-06	
6.378271e-06	
6.042573e-06	
3.860533e-06	
2.517738e-06	
3.189135e-06	
8.392462e-07	
-2.853437e-06	
-6.042573e-06	
-1.023880e-05	
-1.359579e-05	
-1.359579e-05	
-1.292439e-05	
-1.242084e-05	
-1.074235e-05	
-9.399558e-06	
-1.376364e-05	
-1.913481e-05	
-1.829557e-05	
-1.443503e-05	
-1.225299e-05	
-1.040665e-05	
-7.888914e-06	
-3.524834e-06	
1.678492e-07	
1.174945e-06	
1.174945e-06	
3.189135e-06	
4.364080e-06	
2.182040e-06	
-6.713969e-07	
5.035477e-07	
1.007095e-06	
-3.524834e-06	
-7.217517e-06	
-7.385367e-06	
-6.042573e-06	
-4.196231e-06	
-1.678492e-06	
-1.007095e-06	
-2.014191e-06	
-4.028382e-06	
-4.531929e-06	
-3.356985e-06	
-2.014191e-06	
-1.846342e-06	
-6.713969e-07	
1.510643e-06	
1.846342e-06	
1.174945e-06	
1.174945e-06	
0.000000e+00	
-1.510643e-06	
-1.174945e-06	
3.356985e-07	
1.174945e-06	
1.007095e-06	
-1.342794e-06	
-4.867628e-06	
-6.210422e-06	
-5.371176e-06	
-4.867628e-06	
-5.203327e-06	
-3.692683e-06	
-8.392462e-07	
-5.035477e-07	
-5.035477e-07	
1.510643e-06	
2.349889e-06	
2.182040e-06	
5.035477e-06	
7.385367e-06	
7.888914e-06	
8.392461e-06	
8.560311e-06	
7.217517e-06	
5.035477e-06	
4.196231e-06	
5.203327e-06	
9.399558e-06	
1.393149e-05	
1.493858e-05	
1.208515e-05	
9.231708e-06	
8.560311e-06	
7.553216e-06	
4.867628e-06	
0.000000e+00	
-4.196231e-06	
-4.196231e-06	
-3.860533e-06	
-4.196231e-06	
-4.196231e-06	
-4.867628e-06	
-6.546120e-06	
-7.217517e-06	
-7.217517e-06	
-7.385367e-06	
-8.728161e-06	
-8.560311e-06	
-7.217517e-06	
-7.217517e-06	
-5.203327e-06	
-3.692683e-06	
-3.860533e-06	
-4.867628e-06	
-5.203327e-06	
-5.874723e-06	
-6.881819e-06	
-6.713969e-06	
-7.553216e-06	
-7.385367e-06	
-7.049668e-06	
-5.706874e-06	
-3.692683e-06	
-1.510643e-06	
-1.007095e-06	
-2.014191e-06	
-2.182040e-06	
1.007095e-06	
6.378271e-06	
9.735256e-06	
1.460288e-05	
1.980621e-05	
2.349889e-05	
2.618448e-05	
2.618448e-05	
1.980621e-05	
8.560311e-06	
-8.392462e-07	
-8.224612e-06	
-1.661707e-05	
-2.215610e-05	
-2.316319e-05	
-2.215610e-05	
-2.030976e-05	
-1.779202e-05	
-1.560998e-05	
-1.309224e-05	
-9.567407e-06	
-7.385367e-06	
-6.210422e-06	
-3.189135e-06	
8.392462e-07	
2.517738e-06	
2.853437e-06	
2.517738e-06	
2.517738e-06	
4.028382e-06	
3.692683e-06	
1.174945e-06	
-1.678492e-07	
-1.678492e-07	
-3.356985e-07	
-1.174945e-06	
-1.342794e-06	
-1.510643e-06	
-1.678492e-06	
0.000000e+00	
2.517738e-06	
3.692683e-06	
3.524834e-06	
2.182040e-06	
1.510643e-06	
2.182040e-06	
4.531929e-06	
7.888914e-06	
7.888914e-06	
4.867628e-06	
2.349889e-06	
2.853437e-06	
2.853437e-06	
-1.510643e-06	
-5.035477e-06	
-2.853437e-06	
-6.713969e-07	
-2.685588e-06	
-3.524834e-06	
-2.182040e-06	
-1.342794e-06	
-1.678492e-07	
-3.356985e-07	
-8.392462e-07	
-1.007095e-06	
-8.392462e-07	
-3.189135e-06	
-5.539025e-06	
-3.692683e-06	
-3.356985e-07	
6.713969e-07	
5.035477e-07	
1.678492e-06	
2.853437e-06	
1.342794e-06	
-1.342794e-06	
-1.846342e-06	
-8.392462e-07	
0.000000e+00	
-1.678492e-07	
-1.678492e-07	
1.174945e-06	
3.356985e-07	
-1.174945e-06	
0.000000e+00	
8.392462e-07	
5.035477e-07	
8.392462e-07	
1.007095e-06	
1.678492e-07	
5.035477e-07	
1.342794e-06	
2.182040e-06	
1.510643e-06	
1.007095e-06	
1.678492e-07	
-5.035477e-07	
-1.510643e-06	
-1.846342e-06	
-5.035477e-07	
1.510643e-06	
5.035477e-07	
-1.678492e-06	
-4.196231e-06	
-6.881819e-06	
-9.567407e-06	
-9.567407e-06	
-9.903105e-06	
-1.158160e-05	
-1.376364e-05	
-1.326009e-05	
-1.091020e-05	
-9.735256e-06	
-1.074235e-05	
-1.124590e-05	
-1.057450e-05	
-1.040665e-05	
-9.903105e-06	
-8.224612e-06	
-4.531929e-06	
0.000000e+00	
2.853437e-06	
3.524834e-06	
3.189135e-06	
2.517738e-06	
3.021286e-06	
4.867628e-06	
4.364080e-06	
4.364080e-06	
5.035477e-06	
4.364080e-06	
3.356985e-06	
-6.713969e-07	
-3.021286e-06	
-3.189135e-06	
-2.182040e-06	
2.014191e-06	
3.860533e-06	
3.524834e-06	
3.692683e-06	
4.867628e-06	
5.371176e-06	
3.021286e-06	
-1.678492e-07	
3.356985e-07	
2.853437e-06	
4.196231e-06	
3.189135e-06	
3.189135e-06	
3.189135e-06	
2.182040e-06	
0.000000e+00	
-1.510643e-06	
-1.510643e-06	
-1.007095e-06	
-2.349889e-06	
-3.524834e-06	
-3.692683e-06	
-3.189135e-06	
-1.678492e-06	
-1.007095e-06	
-1.007095e-06	
-1.174945e-06	
-2.517738e-06	
-2.853437e-06	
-2.182040e-06	
-3.189135e-06	
-5.706874e-06	
-5.203327e-06	
-1.510643e-06	
2.349889e-06	
4.196231e-06	
5.203327e-06	
5.539025e-06	
4.699779e-06	
3.860533e-06	
2.853437e-06	
1.007095e-06	
-1.678492e-07	
3.356985e-07	
2.853437e-06	
5.874723e-06	
7.888914e-06	
8.560311e-06	
5.203327e-06	
2.517738e-06	
3.189135e-06	
3.860533e-06	
2.853437e-06	
-1.007095e-06	
-5.539025e-06	
-5.706874e-06	
-3.356985e-06	
-1.846342e-06	
-2.685588e-06	
-1.174945e-06	
-1.678492e-07	
-1.174945e-06	
-1.174945e-06	
-1.846342e-06	
-2.182040e-06	
-2.517738e-06	
-4.028382e-06	
-5.371176e-06	
-6.713969e-06	
-6.546120e-06	
-4.867628e-06	
-4.364080e-06	
-5.539025e-06	
-7.385367e-06	
-8.392461e-06	
-5.539025e-06	
-8.392462e-07	
3.189135e-06	
5.035477e-06	
3.860533e-06	
-1.678492e-07	
-2.517738e-06	
-3.189135e-06	
-5.035477e-06	
-5.539025e-06	
-2.517738e-06	
5.035477e-07	
1.510643e-06	
2.182040e-06	
1.510643e-06	
8.392462e-07	
8.392462e-07	
8.392462e-07	
2.517738e-06	
4.364080e-06	
2.517738e-06	
-1.846342e-06	
-3.860533e-06	
-2.853437e-06	
-6.713969e-07	
1.174945e-06	
2.349889e-06	
2.182040e-06	
-1.007095e-06	
-4.531929e-06	
-8.896010e-06	
-1.023880e-05	
-9.567407e-06	
-8.224612e-06	
-7.217517e-06	
-7.553216e-06	
-8.896010e-06	
-9.399558e-06	
-8.056763e-06	
-7.553216e-06	
-7.217517e-06	
-5.539025e-06	
-4.699779e-06	
-6.546120e-06	
-7.888914e-06	
-5.706874e-06	
-3.524834e-06	
-1.510643e-06	
-3.356985e-07	
3.356985e-07	
5.035477e-07	
1.846342e-06	
4.699779e-06	
6.546120e-06	
6.713969e-06	
7.888914e-06	
8.224612e-06	
9.231708e-06	
1.040665e-05	
6.881819e-06	
1.846342e-06	
-6.713969e-07	
1.846342e-06	
5.874723e-06	
8.560311e-06	
9.903105e-06	
1.057450e-05	
1.074235e-05	
1.057450e-05	
1.023880e-05	
5.539025e-06	
-2.517738e-06	
-1.040665e-05	
-1.762417e-05	
-2.282750e-05	
-2.568093e-05	
-2.668803e-05	
-2.601663e-05	
-2.299535e-05	
-1.661707e-05	
-8.896010e-06	
-2.182040e-06	
3.189135e-06	
6.210422e-06	
6.881819e-06	
7.217517e-06	
7.888914e-06	
7.888914e-06	
6.210422e-06	
5.539025e-06	
5.203327e-06	
3.692683e-06	
2.349889e-06	
2.517738e-06	
3.860533e-06	
4.364080e-06	
3.189135e-06	
2.182040e-06	
0.000000e+00	
-2.517738e-06	
-2.349889e-06	
-1.007095e-06	
-1.007095e-06	
-1.510643e-06	
-1.174945e-06	
-1.510643e-06	
-2.853437e-06	
-4.531929e-06	
-6.881819e-06	
-7.888914e-06	
-7.888914e-06	
-8.224612e-06	
-9.567407e-06	
-8.224612e-06	
-4.364080e-06	
-1.678492e-07	
2.517738e-06	
2.853437e-06	
-3.356985e-07	
-5.203327e-06	
-4.867628e-06	
-5.035477e-07	
6.713969e-07	
-2.349889e-06	
-1.678492e-06	
3.021286e-06	
5.539025e-06	
8.560311e-06	
1.057450e-05	
9.903105e-06	
1.158160e-05	
1.460288e-05	
1.326009e-05	
1.057450e-05	
9.063859e-06	
8.392461e-06	
8.560311e-06	
7.049668e-06	
4.364080e-06	
3.860533e-06	
2.853437e-06	
3.860533e-06	
6.210422e-06	
5.706874e-06	
6.546120e-06	
6.378271e-06	
4.364080e-06	
2.517738e-06	
-1.678492e-07	
-2.182040e-06	
-1.174945e-06	
1.174945e-06	
-1.678492e-07	
-3.860533e-06	
-7.553216e-06	
-1.023880e-05	
-1.057450e-05	
-1.124590e-05	
-1.191730e-05	
-1.309224e-05	
-1.644922e-05	
-1.661707e-05	
-1.141375e-05	
-8.224612e-06	
-7.385367e-06	
-5.203327e-06	
-5.035477e-07	
2.517738e-06	
3.524834e-06	
5.539025e-06	
4.531929e-06	
3.189135e-06	
3.692683e-06	
1.846342e-06	
-5.035477e-07	
-8.392462e-07	
-8.392462e-07	
-1.174945e-06	
-1.174945e-06	
-2.685588e-06	
-6.546120e-06	
-7.553216e-06	
-3.021286e-06	
1.174945e-06	
5.035477e-07	
-1.678492e-06	
-2.517738e-06	
-4.196231e-06	
-4.196231e-06	
-6.546120e-06	
-8.728161e-06	
-7.217517e-06	
-7.553216e-06	
-7.888914e-06	
-5.203327e-06	
-1.678492e-06	
3.356985e-07	
-1.174945e-06	
-3.021286e-06	
-3.524834e-06	
-2.349889e-06	
-8.392462e-07	
1.174945e-06	
2.014191e-06	
1.678492e-06	
1.510643e-06	
1.174945e-06	
5.035477e-07	
-1.174945e-06	
-1.678492e-06	
-2.182040e-06	
-2.853437e-06	
-4.699779e-06	
-5.539025e-06	
-4.028382e-06	
-2.182040e-06	
-2.349889e-06	
-2.853437e-06	
-1.174945e-06	
1.342794e-06	
5.539025e-06	
8.560311e-06	
1.057450e-05	
1.158160e-05	
1.292439e-05	
1.376364e-05	
1.393149e-05	
1.443503e-05	
1.359579e-05	
9.231708e-06	
4.196231e-06	
1.174945e-06	
5.035477e-07	
1.678492e-07	
-1.174945e-06	
-2.853437e-06	
-5.874723e-06	
-6.210422e-06	
-6.881819e-06	
-8.224612e-06	
-8.560311e-06	
-1.023880e-05	
-1.158160e-05	
-1.158160e-05	
-1.258869e-05	
-1.342794e-05	
-1.242084e-05	
-1.091020e-05	
-9.903105e-06	
-9.903105e-06	
-5.874723e-06	
1.678492e-07	
3.692683e-06	
4.867628e-06	
5.874723e-06	
6.210422e-06	
7.049668e-06	
7.721065e-06	
5.874723e-06	
2.349889e-06	
-6.713969e-07	
-1.510643e-06	
-1.678492e-06	
-8.392462e-07	
8.392462e-07	
5.035477e-07	
-1.510643e-06	
-4.364080e-06	
-8.560311e-06	
-1.023880e-05	
-5.035477e-06	
-3.356985e-07	
1.678492e-07	
-1.510643e-06	
-1.846342e-06	
-8.392462e-07	
-1.174945e-06	
-2.182040e-06	
-1.846342e-06	
-1.678492e-06	
-1.510643e-06	
-1.174945e-06	
8.392462e-07	
1.510643e-06	
-1.678492e-07	
-1.174945e-06	
1.007095e-06	
2.517738e-06	
1.342794e-06	
1.678492e-07	
1.174945e-06	
2.853437e-06	
4.531929e-06	
3.524834e-06	
8.392462e-07	
1.342794e-06	
3.189135e-06	
2.517738e-06	
-1.678492e-07	
-1.510643e-06	
-2.517738e-06	
-5.035477e-06	
-7.888914e-06	
-8.896010e-06	
-9.735256e-06	
-1.057450e-05	
-1.007095e-05	
-7.721065e-06	
-5.203327e-06	
-2.349889e-06	
2.517738e-06	
7.721065e-06	
1.158160e-05	
1.242084e-05	
1.292439e-05	
1.527428e-05	
1.661707e-05	
1.258869e-05	
6.042573e-06	
-2.853437e-06	
-1.443503e-05	
-2.165255e-05	
-2.299535e-05	
-2.148470e-05	
-1.728847e-05	
-1.493858e-05	
-1.409934e-05	
-1.057450e-05	
-4.028382e-06	
8.392462e-07	
3.860533e-06	
7.553216e-06	
1.174945e-05	
1.544213e-05	
1.745632e-05	
1.745632e-05	
1.560998e-05	
1.191730e-05	
7.721065e-06	
2.517738e-06	
-1.510643e-06	
-2.517738e-06	
-2.853437e-06	
-2.182040e-06	
-1.174945e-06	
-1.007095e-06	
-2.182040e-06	
-2.182040e-06	
-2.182040e-06	
-2.182040e-06	
-2.853437e-06	
-4.196231e-06	
-3.356985e-06	
-2.853437e-06	
-3.021286e-06	
-3.524834e-06	
-2.182040e-06	
-1.510643e-06	
-6.713969e-07	
5.035477e-07	
0.000000e+00	
-1.510643e-06	
-2.349889e-06	
-2.853437e-06	
-3.189135e-06	
-3.524834e-06	
-4.531929e-06	
-6.546120e-06	
-8.560311e-06	
-9.231708e-06	
-8.728161e-06	
-8.224612e-06	
-8.728161e-06	
-6.881819e-06	
-5.203327e-06	
-5.874723e-06	
-4.867628e-06	
-3.189135e-06	
-2.853437e-06	
-3.356985e-06	
-1.846342e-06	
1.174945e-06	
3.021286e-06	
4.364080e-06	
6.546120e-06	
8.224612e-06	
8.896010e-06	
9.231708e-06	
7.217517e-06	
5.706874e-06	
5.203327e-06	
4.196231e-06	
1.678492e-06	
5.035477e-07	
1.846342e-06	
3.860533e-06	
5.371176e-06	
7.888914e-06	
9.735256e-06	
1.057450e-05	
9.903105e-06	
5.874723e-06	
2.517738e-06	
8.392462e-07	
-6.713969e-07	
-3.189135e-06	
-4.196231e-06	
-3.860533e-06	
-4.196231e-06	
-5.035477e-06	
-6.042573e-06	
-8.896010e-06	
-1.074235e-05	
-9.735256e-06	
-7.553216e-06	
-7.385367e-06	
-6.210422e-06	
-4.364080e-06	
-3.189135e-06	
-5.035477e-07	
1.678492e-07	
-1.510643e-06	
-3.189135e-06	
-5.035477e-06	
-5.539025e-06	
-4.867628e-06	
-3.189135e-06	
-5.035477e-07	
1.174945e-06	
1.510643e-06	
1.678492e-06	
0.000000e+00	
-2.517738e-06	
-3.692683e-06	
-3.524834e-06	
-4.028382e-06	
-5.035477e-06	
-3.692683e-06	
-5.203327e-06	
-6.713969e-06	
-4.867628e-06	
-2.853437e-06	
1.510643e-06	
5.539025e-06	
4.867628e-06	
2.517738e-06	
2.349889e-06	
4.028382e-06	
3.860533e-06	
2.685588e-06	
5.035477e-07	
5.035477e-07	
1.007095e-06	
3.524834e-06	
5.706874e-06	
2.853437e-06	
-1.678492e-07	
-2.182040e-06	
-2.014191e-06	
-1.678492e-07	
1.174945e-06	
5.035477e-07	
-5.035477e-07	
0.000000e+00	
6.713969e-07	
-5.035477e-07	
-3.021286e-06	
-3.189135e-06	
-1.510643e-06	
-6.713969e-07	
8.392462e-07	
3.692683e-06	
4.028382e-06	
3.189135e-06	
3.021286e-06	
2.349889e-06	
2.182040e-06	
2.853437e-06	
3.189135e-06	
2.517738e-06	
1.846342e-06	
1.174945e-06	
0.000000e+00	
1.678492e-07	
-3.356985e-07	
-4.028382e-06	
-9.063859e-06	
-9.063859e-06	
-5.874723e-06	
-4.867628e-06	
-5.371176e-06	
-4.867628e-06	
-4.867628e-06	
-5.203327e-06	
-3.692683e-06	
-1.007095e-06	
0.000000e+00	
0.000000e+00	
3.356985e-07	
1.007095e-06	
1.678492e-06	
3.189135e-06	
2.853437e-06	
1.510643e-06	
1.678492e-07	
-1.510643e-06	
-1.174945e-06	
1.174945e-06	
-6.713969e-07	
-3.524834e-06	
-3.860533e-06	
-4.699779e-06	
-6.881819e-06	
-7.553216e-06	
-6.881819e-06	
-5.035477e-06	
-3.524834e-06	
-1.174945e-06	
5.035477e-07	
2.182040e-06	
5.203327e-06	
3.860533e-06	
1.174945e-06	
3.692683e-06	
6.546120e-06	
5.874723e-06	
3.692683e-06	
3.524834e-06	
3.189135e-06	
4.364080e-06	
2.182040e-06	
-5.035477e-07	
1.678492e-07	
2.685588e-06	
2.853437e-06	
-5.035477e-07	
-4.364080e-06	
-4.867628e-06	
-2.517738e-06	
1.678492e-07	
1.510643e-06	
4.196231e-06	
5.706874e-06	
4.028382e-06	
3.356985e-07	
-1.846342e-06	
-8.392462e-07	
-8.392462e-07	
-4.364080e-06	
-6.881819e-06	
-7.049668e-06	
-8.224612e-06	
-7.385367e-06	
-6.042573e-06	
-5.203327e-06	
-5.035477e-06	
-5.539025e-06	
-5.203327e-06	
-3.692683e-06	
-2.517738e-06	
-5.539025e-06	
-8.896010e-06	
-7.385367e-06	
-5.035477e-06	
-4.028382e-06	
-5.874723e-06	
-8.224612e-06	
-6.881819e-06	
-3.524834e-06	
-2.182040e-06	
-2.182040e-06	
-1.846342e-06	
-1.342794e-06	
-2.014191e-06	
-1.342794e-06	
-8.392462e-07	
-1.678492e-06	
-2.685588e-06	
-3.692683e-06	
-5.874723e-06	
-8.560311e-06	
-7.721065e-06	
-4.867628e-06	
-3.021286e-06	
-2.685588e-06	
-2.182040e-06	
2.182040e-06	
9.567407e-06	
1.493858e-05	
1.762417e-05	
1.863127e-05	
1.997406e-05	
2.182040e-05	
2.215610e-05	
2.030976e-05	
1.326009e-05	
1.510643e-06	
-8.392461e-06	
-1.359579e-05	
-1.628138e-05	
-1.829557e-05	
-1.896696e-05	
-1.762417e-05	
-1.426719e-05	
-1.158160e-05	
-9.903105e-06	
-8.728161e-06	
-6.042573e-06	
-2.182040e-06	
1.510643e-06	
1.510643e-06	
-8.392462e-07	
-2.349889e-06	
-3.860533e-06	
-5.539025e-06	
-6.042573e-06	
-6.378271e-06	
-6.210422e-06	
-5.371176e-06	
-4.364080e-06	
-1.846342e-06	
1.174945e-06	
3.356985e-06	
2.517738e-06	
1.510643e-06	
1.510643e-06	
3.356985e-07	
5.035477e-07	
2.014191e-06	
3.524834e-06	
4.531929e-06	
4.196231e-06	
4.531929e-06	
3.860533e-06	
2.182040e-06	
1.846342e-06	
2.517738e-06	
3.860533e-06	
3.860533e-06	
5.035477e-07	
-2.853437e-06	
-5.035477e-07	
1.846342e-06	
5.035477e-07	
-1.174945e-06	
-2.517738e-06	
-2.349889e-06	
-2.182040e-06	
-3.524834e-06	
-6.042573e-06	
-5.706874e-06	
-3.021286e-06	
-5.035477e-07	
-6.713969e-07	
-3.524834e-06	
-6.546120e-06	
-7.049668e-06	
-7.888914e-06	
-9.735256e-06	
-8.056763e-06	
-4.867628e-06	
-2.853437e-06	
-1.678492e-06	
-1.678492e-07	
-6.713969e-07	
-2.014191e-06	
-3.356985e-07	
2.853437e-06	
3.021286e-06	
1.846342e-06	
3.189135e-06	
2.517738e-06	
-1.678492e-07	
5.035477e-07	
2.014191e-06	
1.342794e-06	
-1.678492e-06	
-4.196231e-06	
-4.196231e-06	
-2.182040e-06	
-1.342794e-06	
-1.510643e-06	
1.846342e-06	
5.035477e-06	
6.378271e-06	
8.392461e-06	
1.040665e-05	
9.903105e-06	
8.392461e-06	
7.888914e-06	
8.560311e-06	
1.124590e-05	
1.174945e-05	
8.728161e-06	
1.846342e-06	
-3.860533e-06	
-4.196231e-06	
-4.196231e-06	
-7.385367e-06	
-1.158160e-05	
-1.342794e-05	
-1.309224e-05	
-9.231708e-06	
-3.860533e-06	
-2.349889e-06	
-4.867628e-06	
-8.224612e-06	
-9.903105e-06	
-5.874723e-06	
1.678492e-07	
2.182040e-06	
5.035477e-07	
2.182040e-06	
7.888914e-06	
1.158160e-05	
1.107805e-05	
7.385367e-06	
3.524834e-06	
1.846342e-06	
2.349889e-06	
3.189135e-06	
5.035477e-07	
-3.524834e-06	
-4.364080e-06	
-3.021286e-06	
-2.517738e-06	
-3.021286e-06	
-5.035477e-06	
-6.881819e-06	
-5.874723e-06	
-4.699779e-06	
-5.203327e-06	
-6.713969e-06	
-7.385367e-06	
-5.874723e-06	
-4.028382e-06	
-3.524834e-06	
-2.853437e-06	
-3.189135e-06	
-4.028382e-06	
-4.196231e-06	
-3.524834e-06	
-4.364080e-06	
-4.196231e-06	
-3.189135e-06	
-2.182040e-06	
1.678492e-06	
5.035477e-06	
6.042573e-06	
7.888914e-06	
1.057450e-05	
1.124590e-05	
8.392461e-06	
5.874723e-06	
5.874723e-06	
5.874723e-06	
3.860533e-06	
2.517738e-06	
1.846342e-06	
-3.356985e-07	
1.678492e-07	
3.692683e-06	
5.539025e-06	
4.196231e-06	
3.021286e-06	
4.196231e-06	
4.531929e-06	
2.349889e-06	
-1.678492e-07	
-1.846342e-06	
-3.860533e-06	
-4.867628e-06	
-4.699779e-06	
-4.531929e-06	
-3.189135e-06	
-2.349889e-06	
-3.189135e-06	
-5.035477e-06	
-6.881819e-06	
-8.560311e-06	
-9.903105e-06	
-9.903105e-06	
-6.378271e-06	
-2.014191e-06	
-5.035477e-07	
-3.189135e-06	
-6.210422e-06	
-6.210422e-06	
-5.203327e-06	
-3.524834e-06	
-2.853437e-06	
-4.531929e-06	
-5.539025e-06	
-4.867628e-06	
-2.517738e-06	
6.713969e-07	
3.356985e-07	
-4.196231e-06	
-6.210422e-06	
-4.531929e-06	
-2.517738e-06	
-3.021286e-06	
-4.867628e-06	
-3.692683e-06	
-3.356985e-07	
1.678492e-07	
-6.713969e-07	
-8.392462e-07	
3.356985e-07	
1.510643e-06	
3.860533e-06	
7.217517e-06	
9.063859e-06	
8.896010e-06	
9.063859e-06	
1.057450e-05	
1.091020e-05	
7.888914e-06	
5.874723e-06	
6.713969e-06	
4.867628e-06	
2.853437e-06	
5.035477e-07	
-3.189135e-06	
-5.874723e-06	
-5.203327e-06	
-2.853437e-06	
-2.014191e-06	
-2.517738e-06	
-3.524834e-06	
-3.692683e-06	
-8.392462e-07	
2.853437e-06	
4.867628e-06	
6.042573e-06	
7.888914e-06	
1.040665e-05	
1.258869e-05	
1.292439e-05	
7.721065e-06	
-2.517738e-06	
-1.107805e-05	
-1.628138e-05	
-1.896696e-05	
-2.047761e-05	
-2.014191e-05	
-1.644922e-05	
-1.225299e-05	
-7.553216e-06	
-3.021286e-06	
-1.342794e-06	
-5.035477e-07	
1.174945e-06	
1.846342e-06	
1.174945e-06	
-6.713969e-07	
-1.846342e-06	
-2.853437e-06	
-1.846342e-06	
-2.182040e-06	
-3.189135e-06	
-4.196231e-06	
-8.224612e-06	
-9.567407e-06	
-7.888914e-06	
-7.217517e-06	
-8.224612e-06	
-8.896010e-06	
-8.560311e-06	
-7.217517e-06	
-5.035477e-06	
-3.692683e-06	
-3.524834e-06	
-2.853437e-06	
1.678492e-07	
1.678492e-06	
2.517738e-06	
3.860533e-06	
6.546120e-06	
9.231708e-06	
1.057450e-05	
9.735256e-06	
8.560311e-06	
6.546120e-06	
3.524834e-06	
1.174945e-06	
-5.035477e-07	
-2.182040e-06	
-5.706874e-06	
-9.567407e-06	
-1.057450e-05	
-9.231708e-06	
-6.881819e-06	
-4.196231e-06	
-1.678492e-07	
1.846342e-06	
2.853437e-06	
5.706874e-06	
7.385367e-06	
6.881819e-06	
6.546120e-06	
5.706874e-06	
2.517738e-06	
-1.007095e-06	
-3.356985e-07	
1.846342e-06	
1.174945e-06	
-8.392462e-07	
-2.685588e-06	
-5.203327e-06	
-6.881819e-06	
-6.378271e-06	
-4.196231e-06	
-1.342794e-06	
1.510643e-06	
2.853437e-06	
3.189135e-06	
3.189135e-06	
1.510643e-06	
1.342794e-06	
3.189135e-06	
3.189135e-06	
3.356985e-07	
-2.685588e-06	
-3.021286e-06	
-1.678492e-07	
2.182040e-06	
0.000000e+00	
-1.510643e-06	
-1.510643e-06	
-4.196231e-06	
-7.217517e-06	
-7.721065e-06	
-7.888914e-06	
-9.735256e-06	
-1.057450e-05	
-1.174945e-05	
-1.023880e-05	
-7.553216e-06	
-4.364080e-06	
1.510643e-06	
5.874723e-06	
8.392461e-06	
9.231708e-06	
9.567407e-06	
9.063859e-06	
7.385367e-06	
6.378271e-06	
5.706874e-06	
6.042573e-06	
6.042573e-06	
5.706874e-06	
3.189135e-06	
-6.713969e-07	
-2.853437e-06	
-4.867628e-06	
-5.874723e-06	
-6.546120e-06	
-6.881819e-06	
-5.874723e-06	
-5.706874e-06	
-4.364080e-06	
-8.392462e-07	
-8.392462e-07	
-3.524834e-06	
-5.539025e-06	
-6.546120e-06	
-5.035477e-06	
-2.517738e-06	
5.035477e-07	
3.860533e-06	
5.874723e-06	
5.203327e-06	
4.531929e-06	
4.028382e-06	
1.678492e-06	
-6.713969e-07	
-2.517738e-06	
-4.196231e-06	
-4.364080e-06	
-3.189135e-06	
-1.678492e-06	
-1.007095e-06	
-1.510643e-06	
-1.510643e-06	
-1.007095e-06	
1.174945e-06	
2.349889e-06	
0.000000e+00	
-2.517738e-06	
-3.692683e-06	
-3.021286e-06	
-2.853437e-06	
-2.517738e-06	
-4.531929e-06	
-6.210422e-06	
-7.553216e-06	
-7.049668e-06	
-6.042573e-06	
-4.531929e-06	
-1.174945e-06	
-5.035477e-07	
-1.510643e-06	
-1.007095e-06	
-2.182040e-06	
-3.189135e-06	
-1.174945e-06	
1.678492e-07	
-2.182040e-06	
-5.874723e-06	
-6.881819e-06	
-5.371176e-06	
-4.867628e-06	
-6.378271e-06	
-6.881819e-06	
-5.203327e-06	
-4.364080e-06	
-2.517738e-06	
8.392462e-07	
4.699779e-06	
9.063859e-06	
8.896010e-06	
6.210422e-06	
4.531929e-06	
4.867628e-06	
3.860533e-06	
3.356985e-06	
5.203327e-06	
6.713969e-06	
4.867628e-06	
3.356985e-06	
3.860533e-06	
5.539025e-06	
7.217517e-06	
7.553216e-06	
6.210422e-06	
4.867628e-06	
3.860533e-06	
1.007095e-06	
-2.853437e-06	
-3.692683e-06	
-1.678492e-06	
-3.356985e-07	
-1.846342e-06	
-4.699779e-06	
-4.364080e-06	
-2.182040e-06	
-3.692683e-06	
-7.553216e-06	
-5.706874e-06	
-1.174945e-06	
1.678492e-07	
-5.035477e-07	
-8.392462e-07	
-3.356985e-07	
1.678492e-06	
3.189135e-06	
1.846342e-06	
-1.342794e-06	
-2.182040e-06	
-8.392462e-07	
-1.510643e-06	
-3.021286e-06	
-2.685588e-06	
-1.510643e-06	
0.000000e+00	
1.007095e-06	
2.685588e-06	
4.867628e-06	
8.896010e-06	
1.023880e-05	
8.392461e-06	
6.881819e-06	
5.874723e-06	
5.874723e-06	
5.706874e-06	
3.356985e-06	
2.517738e-06	
4.364080e-06	
3.692683e-06	
5.035477e-07	
-2.853437e-06	
-6.713969e-06	
-1.091020e-05	
-9.903105e-06	
-4.867628e-06	
-2.853437e-06	
-4.196231e-06	
-6.546120e-06	
-6.210422e-06	
-2.517738e-06	
-5.035477e-07	
1.678492e-07	
8.392462e-07	
-1.678492e-07	
-6.713969e-07	
-1.510643e-06	
-2.517738e-06	
-2.182040e-06	
-2.182040e-06	
-2.182040e-06	
-2.517738e-06	
-3.021286e-06	
-3.692683e-06	
-4.028382e-06	
-4.364080e-06	
-2.853437e-06	
-1.846342e-06	
-1.678492e-06	
-5.035477e-07	
0.000000e+00	
0.000000e+00	
-3.356985e-07	
5.035477e-07	
8.392462e-07	
-1.174945e-06	
-2.349889e-06	
-3.189135e-06	
-3.189135e-06	
-2.349889e-06	
-1.846342e-06	
-1.510643e-06	
-1.174945e-06	
-3.021286e-06	
-4.531929e-06	
-5.539025e-06	
-7.888914e-06	
-1.023880e-05	
-7.217517e-06	
-3.860533e-06	
-4.196231e-06	
-6.881819e-06	
-8.392461e-06	
-7.721065e-06	
-4.867628e-06	
-1.846342e-06	
-1.510643e-06	
-2.349889e-06	
-1.846342e-06	
-1.510643e-06	
-8.392462e-07	
3.189135e-06	
8.392461e-06	
1.124590e-05	
1.174945e-05	
1.023880e-05	
6.881819e-06	
3.860533e-06	
2.182040e-06	
2.517738e-06	
3.189135e-06	
3.021286e-06	
1.342794e-06	
-1.846342e-06	
-4.867628e-06	
-5.539025e-06	
-6.210422e-06	
-8.392461e-06	
-8.392461e-06	
-5.706874e-06	
-4.867628e-06	
-8.224612e-06	
-1.225299e-05	
-1.158160e-05	
-9.567407e-06	
-7.217517e-06	
-4.699779e-06	
-2.182040e-06	
-1.007095e-06	
-2.853437e-06	
-1.846342e-06	
1.174945e-06	
2.349889e-06	
3.860533e-06	
6.210422e-06	
6.042573e-06	
1.007095e-06	
-6.378271e-06	
-1.359579e-05	
-1.896696e-05	
-2.182040e-05	
-2.098116e-05	
-1.611353e-05	
-8.728161e-06	
-1.678492e-06	
1.510643e-06	
3.356985e-06	
6.210422e-06	
7.888914e-06	
9.063859e-06	
8.224612e-06	
5.035477e-06	
1.678492e-06	
2.517738e-06	
1.678492e-06	
-1.174945e-06	
-1.678492e-06	
-3.356985e-07	
5.035477e-07	
1.342794e-06	
3.356985e-07	
-8.392462e-07	
1.510643e-06	
4.867628e-06	
7.385367e-06	
7.217517e-06	
7.049668e-06	
5.371176e-06	
1.510643e-06	
-1.846342e-06	
-2.014191e-06	
-8.392462e-07	
-5.035477e-07	
1.678492e-07	
3.692683e-06	
6.378271e-06	
6.378271e-06	
6.546120e-06	
7.721065e-06	
8.896010e-06	
8.224612e-06	
7.049668e-06	
6.881819e-06	
6.378271e-06	
4.699779e-06	
1.846342e-06	
-3.524834e-06	
-8.560311e-06	
-8.728161e-06	
-6.546120e-06	
-6.210422e-06	
-6.378271e-06	
-4.867628e-06	
-4.196231e-06	
-4.364080e-06	
-3.524834e-06	
-1.510643e-06	
1.678492e-07	
8.392462e-07	
1.678492e-06	
2.349889e-06	
2.517738e-06	
3.356985e-06	
7.049668e-06	
1.074235e-05	
1.292439e-05	
1.326009e-05	
1.057450e-05	
6.210422e-06	
4.196231e-06	
3.692683e-06	
5.035477e-07	
-5.035477e-06	
-7.553216e-06	
-5.539025e-06	
-3.524834e-06	
-3.692683e-06	
-5.539025e-06	
-7.888914e-06	
-9.567407e-06	
-8.560311e-06	
-5.539025e-06	
-4.196231e-06	
-3.692683e-06	
-4.028382e-06	
-4.364080e-06	
-5.539025e-06	
-4.867628e-06	
-5.539025e-06	
-4.531929e-06	
-2.853437e-06	
-2.517738e-06	
-5.203327e-06	
-6.042573e-06	
-4.364080e-06	
-2.182040e-06	
8.392462e-07	
2.182040e-06	
6.713969e-07	
-8.392462e-07	
8.392462e-07	
3.189135e-06	
3.524834e-06	
1.846342e-06	
8.392462e-07	
1.174945e-06	
2.517738e-06	
1.846342e-06	
-1.174945e-06	
-1.510643e-06	
-6.713969e-07	
-8.392462e-07	
-2.349889e-06	
-4.867628e-06	
-5.539025e-06	
-5.035477e-06	
-5.539025e-06	
-4.699779e-06	
-2.517738e-06	
1.678492e-07	
4.867628e-06	
5.874723e-06	
2.685588e-06	
1.510643e-06	
1.846342e-06	
2.182040e-06	
3.356985e-06	
3.021286e-06	
5.035477e-07	
-6.713969e-07	
-1.174945e-06	
-3.356985e-06	
-4.867628e-06	
-5.539025e-06	
-6.378271e-06	
-3.021286e-06	
-1.174945e-06	
-4.531929e-06	
-8.392461e-06	
-9.063859e-06	
-8.896010e-06	
-9.063859e-06	
-7.888914e-06	
-5.706874e-06	
-5.874723e-06	
-7.217517e-06	
-5.539025e-06	
-8.392462e-07	
4.364080e-06	
7.888914e-06	
7.049668e-06	
5.874723e-06	
5.874723e-06	
6.378271e-06	
7.888914e-06	
9.567407e-06	
8.728161e-06	
5.874723e-06	
3.860533e-06	
1.007095e-06	
-1.846342e-06	
-3.860533e-06	
-5.035477e-06	
-6.546120e-06	
-8.560311e-06	
-9.903105e-06	
-1.040665e-05	
-9.399558e-06	
-8.224612e-06	
-5.539025e-06	
-3.356985e-06	
-1.678492e-06	
5.035477e-07	
3.692683e-06	
5.203327e-06	
5.874723e-06	
7.721065e-06	
9.231708e-06	
9.735256e-06	
9.903105e-06	
1.023880e-05	
1.007095e-05	
9.231708e-06	
7.217517e-06	
2.182040e-06	
-1.846342e-06	
-2.685588e-06	
-3.189135e-06	
-4.028382e-06	
-5.539025e-06	
-6.546120e-06	
-6.881819e-06	
-4.531929e-06	
-2.517738e-06	
-4.028382e-06	
-7.721065e-06	
-8.224612e-06	
-6.546120e-06	
-3.860533e-06	
-1.174945e-06	
8.392462e-07	
5.203327e-06	
6.713969e-06	
4.196231e-06	
5.035477e-07	
-1.342794e-06	
-1.174945e-06	
-5.035477e-07	
-2.349889e-06	
-6.881819e-06	
-9.399558e-06	
-8.056763e-06	
-5.203327e-06	
-1.846342e-06	
2.182040e-06	
8.728161e-06	
1.611353e-05	
2.030976e-05	
1.997406e-05	
1.695277e-05	
1.174945e-05	
6.210422e-06	
0.000000e+00	
-8.728161e-06	
-1.628138e-05	
-2.114900e-05	
-2.249180e-05	
-1.930266e-05	
-1.661707e-05	
-1.460288e-05	
-1.242084e-05	
-1.174945e-05	
-1.158160e-05	
-1.124590e-05	
-7.049668e-06	
-1.846342e-06	
0.000000e+00	
-1.007095e-06	
-2.182040e-06	
-1.846342e-06	
-8.392462e-07	
5.035477e-07	
-1.174945e-06	
-1.678492e-06	
8.392462e-07	
2.349889e-06	
2.182040e-06	
2.685588e-06	
4.196231e-06	
7.217517e-06	
1.023880e-05	
1.124590e-05	
1.023880e-05	
7.888914e-06	
3.860533e-06	
-1.174945e-06	
-4.531929e-06	
-5.539025e-06	
-5.706874e-06	
-6.042573e-06	
-5.371176e-06	
-3.692683e-06	
-1.342794e-06	
2.182040e-06	
5.706874e-06	
5.539025e-06	
2.517738e-06	
1.174945e-06	
3.860533e-06	
6.210422e-06	
5.539025e-06	
3.356985e-06	
0.000000e+00	
-5.035477e-06	
-9.399558e-06	
-1.107805e-05	
-1.091020e-05	
-9.231708e-06	
-6.210422e-06	
-6.210422e-06	
